Voltage.AUX_RLicht,Voltage.AUX_LLicht,Voltage.AUX_SchalterPlexus
1.2499618530273438,1.2499618530273438,-0.44647216796875
1.2499618530273438,1.2499618530273438,-0.4656219482421875
1.2499618530273438,1.2499618530273438,-0.4439544677734375
0.8947372436523438,0.9593582153320312,-0.45623779296875
1.2499618530273438,1.2499618530273438,-0.3218841552734375
1.2499618530273438,1.2499618530273438,-0.2178955078125
1.2499618530273438,1.2499618530273438,-0.2685546875
1.2499618530273438,1.2499618530273438,-0.0473785400390625
1.2499618530273438,1.2499618530273438,0.0052642822265625
1.2499618530273438,1.2499618530273438,-0.0095367431640625
1.2499618530273438,1.2499618530273438,-0.0075531005859375
1.2499618530273438,1.2499618530273438,0.268402099609375
1.2499618530273438,1.2499618530273438,0.1998138427734375
1.2499618530273438,1.2499618530273438,0.111541748046875
1.2499618530273438,1.2499618530273438,0.3159332275390625
1.2499618530273438,1.2499618530273438,0.2562713623046875
1.2499618530273438,1.2499618530273438,0.3409576416015625
1.2499618530273438,1.2499618530273438,0.2394866943359375
0.9490585327148438,0.8915328979492188,0.245819091796875
1.2499618530273438,1.2499618530273438,0.248565673828125
1.2499618530273438,1.2499618530273438,0.309600830078125
1.2499618530273438,1.2499618530273438,0.4227447509765625
1.2499618530273438,1.2499618530273438,0.3389739990234375
1.2499618530273438,1.2499618530273438,0.1318359375
1.2499618530273438,1.2499618530273438,0.19287109375
1.2499618530273438,1.2499618530273438,0.075836181640625
1.2499618530273438,1.2499618530273438,-0.1206207275390625
1.2499618530273438,1.2499618530273438,-0.1564788818359375
1.2499618530273438,1.2499618530273438,-0.1462554931640625
1.2499618530273438,1.2499618530273438,-0.3807830810546875
1.2499618530273438,1.2499618530273438,-0.4172515869140625
1.2499618530273438,1.2499618530273438,-0.4297637939453125
1.2499618530273438,1.2499618530273438,-0.4518890380859375
0.9340667724609375,0.9775161743164062,-0.447845458984375
1.2499618530273438,1.2499618530273438,-0.2887725830078125
1.2499618530273438,1.2499618530273438,-0.21453857421875
1.2499618530273438,1.2499618530273438,-0.300445556640625
1.2499618530273438,1.2499618530273438,-0.0966644287109375
1.2499618530273438,1.2499618530273438,0.0151824951171875
1.2499618530273438,1.2499618530273438,-0.0597381591796875
1.2499618530273438,1.2499618530273438,0.03143310546875
1.2499618530273438,1.2499618530273438,0.2288055419921875
1.2499618530273438,1.2499618530273438,0.1947784423828125
1.2499618530273438,1.2499618530273438,0.1673126220703125
1.2499618530273438,1.2499618530273438,0.2861785888671875
1.2499618530273438,1.2499618530273438,0.2112579345703125
1.2499618530273438,1.2499618530273438,0.270233154296875
1.2499618530273438,1.2499618530273438,0.258941650390625
0.939178466796875,0.8893966674804688,0.31219482421875
1.2499618530273438,1.2499618530273438,0.2808380126953125
1.2499618530273438,1.2499618530273438,0.3202056884765625
1.2499618530273438,1.2499618530273438,0.4119873046875
1.2499618530273438,1.2499618530273438,0.3470611572265625
1.2499618530273438,1.2499618530273438,0.1174163818359375
1.2499618530273438,1.2499618530273438,0.1656341552734375
1.2499618530273438,1.2499618530273438,0.120391845703125
1.2499618530273438,1.2499618530273438,-0.0909423828125
1.2499618530273438,1.2499618530273438,-0.1837921142578125
1.2499618530273438,1.2499618530273438,-0.1224517822265625
1.2499618530273438,1.2499618530273438,-0.4064178466796875
1.2499618530273438,1.2499618530273438,-0.4050445556640625
1.2499618530273438,1.2499618530273438,-0.4236602783203125
1.2499618530273438,1.2499618530273438,-0.4494476318359375
0.9317398071289062,0.9746170043945312,-0.50689697265625
1.2499618530273438,1.2499618530273438,-0.2671051025390625
1.2499618530273438,1.2499618530273438,-0.2386474609375
1.2499618530273438,1.2499618530273438,-0.317230224609375
1.2499618530273438,1.2499618530273438,-0.0830078125
1.2499618530273438,1.2499618530273438,0.0121307373046875
1.2499618530273438,1.2499618530273438,-0.0844573974609375
1.2499618530273438,1.2499618530273438,0.0167083740234375
1.2499618530273438,1.2499618530273438,0.1727294921875
1.2499618530273438,1.2499618530273438,0.19134521484375
1.2499618530273438,1.2499618530273438,0.1663970947265625
1.2499618530273438,1.2499618530273438,0.31341552734375
1.2499618530273438,1.2499618530273438,0.2740478515625
1.2499618530273438,1.2499618530273438,0.2428436279296875
1.2499618530273438,1.2499618530273438,0.1552581787109375
0.9253692626953125,0.882568359375,0.3403472900390625
1.2499618530273438,1.2499618530273438,0.27313232421875
1.2499618530273438,1.2499618530273438,0.3601837158203125
1.2499618530273438,1.2499618530273438,0.43365478515625
1.2499618530273438,1.2499618530273438,0.2600860595703125
1.2499618530273438,1.2499618530273438,0.188446044921875
1.2499618530273438,1.2499618530273438,0.1470184326171875
1.2499618530273438,1.2499618530273438,0.0743865966796875
1.2499618530273438,1.2499618530273438,-0.1918792724609375
1.2499618530273438,1.2499618530273438,-0.111236572265625
1.2499618530273438,1.2499618530273438,-0.2008056640625
1.2499618530273438,1.2499618530273438,-0.375823974609375
1.2499618530273438,1.2499618530273438,-0.44403076171875
1.2499618530273438,1.2499618530273438,-0.4332733154296875
1.2499618530273438,1.2499618530273438,-0.4444122314453125
0.9395217895507812,1.0076904296875,-0.3993988037109375
1.2499618530273438,1.2499618530273438,-0.330657958984375
1.2499618530273438,1.2499618530273438,-0.2649688720703125
1.2499618530273438,1.2499618530273438,-0.2722930908203125
1.2499618530273438,1.2499618530273438,-0.059814453125
1.2499618530273438,1.2499618530273438,0.0261688232421875
1.2499618530273438,1.2499618530273438,0.0096893310546875
1.2499618530273438,1.2499618530273438,0.01953125
1.2499618530273438,1.2499618530273438,0.2410888671875
1.2499618530273438,1.2499618530273438,0.1861572265625
1.2499618530273438,1.2499618530273438,0.1490020751953125
1.2499618530273438,1.2499618530273438,0.2150726318359375
1.2499618530273438,1.2499618530273438,0.2484130859375
1.2499618530273438,1.2499618530273438,0.1958465576171875
1.2499618530273438,1.2499618530273438,0.2509307861328125
0.9363937377929688,0.8731842041015625,0.360870361328125
1.2499618530273438,1.2499618530273438,0.3200531005859375
1.2499618530273438,1.2499618530273438,0.373992919921875
1.2499618530273438,1.2499618530273438,0.457763671875
1.2499618530273438,1.2499618530273438,0.2735137939453125
1.2499618530273438,1.2499618530273438,0.2162933349609375
1.2499618530273438,1.2499618530273438,0.177154541015625
1.2499618530273438,1.2499618530273438,0.0478363037109375
1.2499618530273438,1.2499618530273438,-0.1670074462890625
1.2499618530273438,1.2499618530273438,-0.14434814453125
1.2499618530273438,1.2499618530273438,-0.184783935546875
1.2499618530273438,1.2499618530273438,-0.3679656982421875
1.2499618530273438,1.2499618530273438,-0.4073333740234375
1.2499618530273438,1.2499618530273438,-0.4442596435546875
1.2499618530273438,1.2499618530273438,-0.470733642578125
0.961151123046875,1.0218429565429688,-0.444793701171875
1.2499618530273438,1.2499618530273438,-0.31219482421875
1.2499618530273438,1.2499618530273438,-0.2741241455078125
1.2499618530273438,1.2499618530273438,-0.2758026123046875
1.2499618530273438,1.2499618530273438,-0.16876220703125
1.2499618530273438,1.2499618530273438,0.0113677978515625
1.2499618530273438,1.2499618530273438,-0.1456451416015625
1.2499618530273438,1.2499618530273438,-0.0038909912109375
1.2499618530273438,1.2499618530273438,0.2750396728515625
1.2499618530273438,1.2499618530273438,0.2391815185546875
1.2499618530273438,1.2499618530273438,0.1515960693359375
1.2499618530273438,1.2499618530273438,0.3186798095703125
1.2499618530273438,1.2499618530273438,0.2806854248046875
1.2499618530273438,1.2499618530273438,0.29510498046875
1.2499618530273438,1.2499618530273438,0.2777099609375
0.9386825561523438,0.8803176879882812,0.3814697265625
1.2499618530273438,1.2499618530273438,0.32623291015625
1.2499618530273438,1.2499618530273438,0.35797119140625
1.2499618530273438,1.2499618530273438,0.40374755859375
1.2499618530273438,1.2499618530273438,0.195465087890625
1.2499618530273438,1.2499618530273438,0.1612091064453125
1.2499618530273438,1.2499618530273438,0.1271820068359375
1.2499618530273438,1.2499618530273438,0.0988006591796875
1.2499618530273438,1.2499618530273438,-0.119781494140625
1.2499618530273438,1.2499618530273438,-0.133514404296875
1.2499618530273438,1.2499618530273438,-0.17242431640625
1.2499618530273438,1.2499618530273438,-0.3569793701171875
1.2499618530273438,1.2499618530273438,-0.410614013671875
1.2499618530273438,1.2499618530273438,-0.4454803466796875
1.2499618530273438,1.2499618530273438,-0.42083740234375
0.9803390502929688,1.0300445556640625,-0.400848388671875
1.2499618530273438,1.2499618530273438,-0.334014892578125
1.2499618530273438,1.2499618530273438,-0.2570343017578125
1.2499618530273438,1.2499618530273438,-0.1871490478515625
1.2499618530273438,1.2499618530273438,-0.141143798828125
1.2499618530273438,1.2499618530273438,-0.1291656494140625
1.2499618530273438,1.2499618530273438,-0.030975341796875
1.2499618530273438,1.2499618530273438,-0.06805419921875
1.2499618530273438,1.2499618530273438,0.169219970703125
1.2499618530273438,1.2499618530273438,0.17974853515625
1.2499618530273438,1.2499618530273438,0.1467132568359375
1.2499618530273438,1.2499618530273438,0.2690887451171875
1.2499618530273438,1.2499618530273438,0.225830078125
1.2499618530273438,1.2499618530273438,0.2729034423828125
1.2499618530273438,1.2499618530273438,0.258941650390625
0.9640121459960938,0.9067916870117188,0.3290557861328125
1.2499618530273438,1.2499618530273438,0.27435302734375
1.2499618530273438,1.2499618530273438,0.314788818359375
1.2499618530273438,1.2499618530273438,0.4419708251953125
1.2499618530273438,1.2499618530273438,0.2431488037109375
1.2499618530273438,1.2499618530273438,0.201263427734375
1.2499618530273438,1.2499618530273438,0.1580810546875
1.2499618530273438,1.2499618530273438,0.126190185546875
1.2499618530273438,1.2499618530273438,-0.12786865234375
1.2499618530273438,1.2499618530273438,-0.1520538330078125
1.2499618530273438,1.2499618530273438,-0.1678466796875
1.2499618530273438,1.2499618530273438,-0.41259765625
1.2499618530273438,1.2499618530273438,-0.3726959228515625
1.2499618530273438,1.2499618530273438,-0.453643798828125
1.2499618530273438,1.2499618530273438,-0.4497528076171875
0.993804931640625,1.0496139526367188,-0.455780029296875
1.2499618530273438,1.2499618530273438,-0.30242919921875
1.2499618530273438,1.2499618530273438,-0.2509307861328125
1.2499618530273438,1.2499618530273438,-0.257415771484375
1.2499618530273438,1.2499618530273438,-0.1033782958984375
1.2499618530273438,1.2499618530273438,0.0119781494140625
1.2499618530273438,1.2499618530273438,-0.0310516357421875
1.2499618530273438,1.2499618530273438,0.0377655029296875
1.2499618530273438,1.2499618530273438,0.21636962890625
1.2499618530273438,1.2499618530273438,0.2239227294921875
1.2499618530273438,1.2499618530273438,0.1927947998046875
1.2499618530273438,1.2499618530273438,0.2390289306640625
1.2499618530273438,1.2499618530273438,0.2735137939453125
1.2499618530273438,1.2499618530273438,0.2504730224609375
1.2499618530273438,1.2499618530273438,0.234527587890625
1.01715087890625,0.9503936767578125,0.3119659423828125
1.2499618530273438,1.2499618530273438,0.277252197265625
1.2499618530273438,1.2499618530273438,0.3441619873046875
1.2499618530273438,1.2499618530273438,0.407257080078125
1.2499618530273438,1.2499618530273438,0.3124237060546875
1.2499618530273438,1.2499618530273438,0.17669677734375
1.2499618530273438,1.2499618530273438,0.2333831787109375
1.2499618530273438,1.2499618530273438,0.1161956787109375
1.2499618530273438,1.2499618530273438,-0.1439666748046875
1.2499618530273438,1.2499618530273438,-0.1617431640625
1.2499618530273438,1.2499618530273438,-0.1802825927734375
1.2499618530273438,1.2499618530273438,-0.445709228515625
1.2499618530273438,1.2499618530273438,-0.421142578125
1.2499618530273438,1.2499618530273438,-0.4416656494140625
1.2499618530273438,1.2499618530273438,-0.4531097412109375
1.0094833374023438,1.0278701782226562,-0.4334259033203125
1.2499618530273438,1.2499618530273438,-0.3261566162109375
1.2499618530273438,1.2499618530273438,-0.2593231201171875
1.2499618530273438,1.2499618530273438,-0.36529541015625
1.2499618530273438,1.2499618530273438,-0.088348388671875
1.2499618530273438,1.2499618530273438,0.0628662109375
1.2499618530273438,1.2499618530273438,-0.055999755859375
1.2499618530273438,1.2499618530273438,0.029296875
1.2499618530273438,1.2499618530273438,0.200042724609375
1.2499618530273438,1.2499618530273438,0.116119384765625
1.2499618530273438,1.2499618530273438,0.1140594482421875
1.2499618530273438,1.2499618530273438,0.2469635009765625
1.2499618530273438,1.2499618530273438,0.215911865234375
1.2499618530273438,1.2499618530273438,0.2277374267578125
1.2499618530273438,1.2499618530273438,0.24658203125
0.9805679321289062,0.9595489501953125,0.3347015380859375
1.2499618530273438,1.2499618530273438,0.29296875
1.2499618530273438,1.2499618530273438,0.338287353515625
1.2499618530273438,1.2499618530273438,0.364837646484375
1.2499618530273438,1.2499618530273438,0.2909088134765625
1.2499618530273438,1.2499618530273438,0.191802978515625
1.2499618530273438,1.2499618530273438,0.1827239990234375
1.2499618530273438,1.2499618530273438,0.1104736328125
1.2499618530273438,1.2499618530273438,-0.1959991455078125
1.2499618530273438,1.2499618530273438,-0.1496124267578125
1.2499618530273438,1.2499618530273438,-0.1953125
1.2499618530273438,1.2499618530273438,-0.4216766357421875
1.2499618530273438,1.2499618530273438,-0.4125213623046875
1.2499618530273438,1.2499618530273438,-0.4380035400390625
1.2499618530273438,1.2499618530273438,-0.48828125
0.9534454345703125,1.0260391235351562,-0.440673828125
1.2499618530273438,1.2499618530273438,-0.3255462646484375
1.2499618530273438,1.2499618530273438,-0.3545379638671875
1.2499618530273438,1.2499618530273438,-0.34271240234375
1.2499618530273438,1.2499618530273438,-0.1216888427734375
1.2499618530273438,1.2499618530273438,-0.0405120849609375
1.2499618530273438,1.2499618530273438,0.0084686279296875
1.2499618530273438,1.2499618530273438,0.0913238525390625
1.2499618530273438,1.2499618530273438,0.2057647705078125
1.2499618530273438,1.2499618530273438,0.176544189453125
1.2499618530273438,1.2499618530273438,0.1778411865234375
1.2499618530273438,1.2499618530273438,0.2613067626953125
1.2499618530273438,1.2499618530273438,0.3028106689453125
1.2499618530273438,1.2499618530273438,0.313720703125
1.2499618530273438,1.2499618530273438,0.25238037109375
0.9870529174804688,0.9601211547851562,0.348052978515625
1.2499618530273438,1.2499618530273438,0.2602386474609375
1.2499618530273438,1.2499618530273438,0.361480712890625
1.2499618530273438,1.2499618530273438,0.43701171875
1.2499618530273438,1.2499618530273438,0.2283477783203125
1.2499618530273438,1.2499618530273438,0.222625732421875
1.2499618530273438,1.2499618530273438,0.1560211181640625
1.2499618530273438,1.2499618530273438,0.04302978515625
1.2499618530273438,1.2499618530273438,-0.1808929443359375
1.2499618530273438,1.2499618530273438,-0.0884246826171875
1.2499618530273438,1.2499618530273438,-0.168914794921875
1.2499618530273438,1.2499618530273438,-0.41717529296875
1.2499618530273438,1.2499618530273438,-0.3804779052734375
1.2499618530273438,1.2499618530273438,-0.44189453125
1.2499618530273438,1.2499618530273438,-0.4592132568359375
0.9842300415039062,1.002197265625,-0.457000732421875
1.2499618530273438,1.2499618530273438,-0.299835205078125
1.2499618530273438,1.2499618530273438,-0.2489471435546875
1.2499618530273438,1.2499618530273438,-0.31707763671875
1.2499618530273438,1.2499618530273438,-0.1399993896484375
1.2499618530273438,1.2499618530273438,-0.0286865234375
1.2499618530273438,1.2499618530273438,-0.051727294921875
1.2499618530273438,1.2499618530273438,0.041046142578125
1.2499618530273438,1.2499618530273438,0.2437591552734375
1.2499618530273438,1.2499618530273438,0.17120361328125
1.2499618530273438,1.2499618530273438,0.1168060302734375
1.2499618530273438,1.2499618530273438,0.264739990234375
1.2499618530273438,1.2499618530273438,0.2725982666015625
1.2499618530273438,1.2499618530273438,0.232696533203125
1.2499618530273438,1.2499618530273438,0.2494049072265625
1.0268402099609375,0.96649169921875,0.3308868408203125
1.2499618530273438,1.2499618530273438,0.3717041015625
1.2499618530273438,1.2499618530273438,0.3267669677734375
1.2499618530273438,1.2499618530273438,0.4444122314453125
1.2499618530273438,1.2499618530273438,0.2648162841796875
1.2499618530273438,1.2499618530273438,0.186920166015625
1.2499618530273438,1.2499618530273438,0.19989013671875
1.2499618530273438,1.2499618530273438,0.0693511962890625
1.2499618530273438,1.2499618530273438,-0.1711273193359375
1.2499618530273438,1.2499618530273438,-0.1125335693359375
1.2499618530273438,1.2499618530273438,-0.163421630859375
1.2499618530273438,1.2499618530273438,-0.4578399658203125
1.2499618530273438,1.2499618530273438,-0.4347991943359375
1.2499618530273438,1.2499618530273438,-0.39154052734375
1.2499618530273438,1.2499618530273438,-0.489349365234375
0.9587860107421875,0.9855270385742188,-0.4439544677734375
1.2499618530273438,1.2499618530273438,-0.28167724609375
1.2499618530273438,1.2499618530273438,-0.306396484375
1.2499618530273438,1.2499618530273438,-0.3206634521484375
1.2499618530273438,1.2499618530273438,-0.08331298828125
1.2499618530273438,1.2499618530273438,-0.04669189453125
1.2499618530273438,1.2499618530273438,-0.0524139404296875
1.2499618530273438,1.2499618530273438,0.1050567626953125
1.2499618530273438,1.2499618530273438,0.2019500732421875
1.2499618530273438,1.2499618530273438,0.221099853515625
1.2499618530273438,1.2499618530273438,0.2152252197265625
1.2499618530273438,1.2499618530273438,0.29052734375
1.2499618530273438,1.2499618530273438,0.211029052734375
1.2499618530273438,1.2499618530273438,0.2392578125
1.2499618530273438,1.2499618530273438,0.22979736328125
1.0150527954101562,0.9692001342773438,0.3388214111328125
1.2499618530273438,1.2499618530273438,0.2988433837890625
1.2499618530273438,1.2499618530273438,0.350189208984375
1.2499618530273438,1.2499618530273438,0.3670501708984375
1.2499618530273438,1.2499618530273438,0.3205108642578125
1.2499618530273438,1.2499618530273438,0.25390625
1.2499618530273438,1.2499618530273438,0.2028656005859375
1.2499618530273438,1.2499618530273438,-0.00762939453125
1.2499618530273438,1.2499618530273438,-0.0756072998046875
1.2499618530273438,1.2499618530273438,-0.177001953125
1.2499618530273438,1.2499618530273438,-0.1280975341796875
1.2499618530273438,1.2499618530273438,-0.370025634765625
1.2499618530273438,1.2499618530273438,-0.4277801513671875
1.2499618530273438,1.2499618530273438,-0.464019775390625
1.2499618530273438,1.2499618530273438,-0.4345703125
0.9572601318359375,1.0283279418945312,-0.4282379150390625
1.2499618530273438,1.2499618530273438,-0.30487060546875
1.2499618530273438,1.2499618530273438,-0.2706146240234375
1.2499618530273438,1.2499618530273438,-0.200653076171875
1.2499618530273438,1.2499618530273438,-0.103759765625
1.2499618530273438,1.2499618530273438,-0.0099945068359375
1.2499618530273438,1.2499618530273438,-0.00640869140625
1.2499618530273438,1.2499618530273438,0.04638671875
1.2499618530273438,1.2499618530273438,0.213775634765625
1.2499618530273438,1.2499618530273438,0.19287109375
1.2499618530273438,1.2499618530273438,0.1482391357421875
1.2499618530273438,1.2499618530273438,0.2722930908203125
1.2499618530273438,1.2499618530273438,0.2606964111328125
1.2499618530273438,1.2499618530273438,0.2764892578125
1.2499618530273438,1.2499618530273438,0.3028106689453125
1.0272598266601562,0.9749603271484375,0.350494384765625
1.2499618530273438,1.2499618530273438,0.3012847900390625
1.2499618530273438,1.2499618530273438,0.326385498046875
1.2499618530273438,1.2499618530273438,0.3203582763671875
1.2499618530273438,1.2499618530273438,0.3119659423828125
1.2499618530273438,1.2499618530273438,0.1244354248046875
1.2499618530273438,1.2499618530273438,0.1947784423828125
1.2499618530273438,1.2499618530273438,0.043182373046875
1.2499618530273438,1.2499618530273438,-0.1514434814453125
1.2499618530273438,1.2499618530273438,-0.1566314697265625
1.2499618530273438,1.2499618530273438,-0.2337646484375
1.2499618530273438,1.2499618530273438,-0.39642333984375
1.2499618530273438,1.2499618530273438,-0.3690338134765625
1.2499618530273438,1.2499618530273438,-0.44189453125
1.2499618530273438,1.2499618530273438,-0.47027587890625
0.9894180297851562,1.0357666015625,-0.4473114013671875
1.2499618530273438,1.2499618530273438,-0.2217864990234375
1.2499618530273438,1.2499618530273438,-0.2984619140625
1.2499618530273438,1.2499618530273438,-0.2957916259765625
1.2499618530273438,1.2499618530273438,-0.1146697998046875
1.2499618530273438,1.2499618530273438,0.0394439697265625
1.2499618530273438,1.2499618530273438,-0.0557708740234375
1.2499618530273438,1.2499618530273438,0.057830810546875
1.2499618530273438,1.2499618530273438,0.2098846435546875
1.2499618530273438,1.2499618530273438,0.2561187744140625
1.2499618530273438,1.2499618530273438,0.1981353759765625
1.2499618530273438,1.2499618530273438,0.303955078125
1.2499618530273438,1.2499618530273438,0.205841064453125
1.2499618530273438,1.2499618530273438,0.253753662109375
1.2499618530273438,1.2499618530273438,0.270538330078125
1.0060882568359375,0.9722137451171875,0.373077392578125
1.2499618530273438,1.2499618530273438,0.317840576171875
1.2499618530273438,1.2499618530273438,0.3421783447265625
1.2499618530273438,1.2499618530273438,0.40740966796875
1.2499618530273438,1.2499618530273438,0.221710205078125
1.2499618530273438,1.2499618530273438,0.2217864990234375
1.2499618530273438,1.2499618530273438,0.225830078125
1.2499618530273438,1.2499618530273438,0.052337646484375
1.2499618530273438,1.2499618530273438,-0.1726531982421875
1.2499618530273438,1.2499618530273438,-0.2155303955078125
1.2499618530273438,1.2499618530273438,-0.167083740234375
1.2499618530273438,1.2499618530273438,-0.341339111328125
1.2499618530273438,1.2499618530273438,-0.4579925537109375
1.2499618530273438,1.2499618530273438,-0.3633880615234375
1.2499618530273438,1.2499618530273438,-0.435028076171875
0.9878921508789062,1.064910888671875,-0.4105377197265625
1.2499618530273438,1.2499618530273438,-0.32684326171875
1.2499618530273438,1.2499618530273438,-0.2622222900390625
1.2499618530273438,1.2499618530273438,-0.2291107177734375
1.2499618530273438,1.2499618530273438,-0.0907135009765625
1.2499618530273438,1.2499618530273438,-0.046234130859375
1.2499618530273438,1.2499618530273438,-0.0569915771484375
1.2499618530273438,1.2499618530273438,0.081939697265625
1.2499618530273438,1.2499618530273438,0.2264404296875
1.2499618530273438,1.2499618530273438,0.101318359375
1.2499618530273438,1.2499618530273438,0.113525390625
1.2499618530273438,1.2499618530273438,0.2318572998046875
1.2499618530273438,1.2499618530273438,0.255279541015625
1.2499618530273438,1.2499618530273438,0.1842498779296875
1.2499618530273438,1.2499618530273438,0.2831268310546875
0.9760665893554688,0.9621810913085938,0.3217315673828125
1.2499618530273438,1.2499618530273438,0.3012847900390625
1.2499618530273438,1.2499618530273438,0.3582000732421875
1.2499618530273438,1.2499618530273438,0.4698944091796875
1.2499618530273438,1.2499618530273438,0.2820587158203125
1.2499618530273438,1.2499618530273438,0.0638580322265625
1.2499618530273438,1.2499618530273438,0.052947998046875
1.2499618530273438,1.2499618530273438,0.02655029296875
1.2499618530273438,1.2499618530273438,-0.21514892578125
1.2499618530273438,1.2499618530273438,-0.0970458984375
1.2499618530273438,1.2499618530273438,-0.2303314208984375
1.2499618530273438,1.2499618530273438,-0.3951263427734375
1.2499618530273438,1.2499618530273438,-0.4279327392578125
1.2499618530273438,1.2499618530273438,-0.4300689697265625
1.2499618530273438,1.2499618530273438,-0.450439453125
1.0349273681640625,1.0623550415039062,-0.4294586181640625
1.2499618530273438,1.2499618530273438,-0.3206634521484375
1.2499618530273438,1.2499618530273438,-0.3591156005859375
1.2499618530273438,1.2499618530273438,-0.31829833984375
1.2499618530273438,1.2499618530273438,-0.0719451904296875
1.2499618530273438,1.2499618530273438,-0.00823974609375
1.2499618530273438,1.2499618530273438,-0.0185394287109375
1.2499618530273438,1.2499618530273438,0.10345458984375
1.2499618530273438,1.2499618530273438,0.27679443359375
1.2499618530273438,1.2499618530273438,0.176239013671875
1.2499618530273438,1.2499618530273438,0.2197265625
1.2499618530273438,1.2499618530273438,0.2874755859375
1.2499618530273438,1.2499618530273438,0.3108978271484375
1.2499618530273438,1.2499618530273438,0.270538330078125
1.2499618530273438,1.2499618530273438,0.2544403076171875
0.9487533569335938,0.9415435791015625,0.324859619140625
1.2499618530273438,1.2499618530273438,0.2674102783203125
1.2499618530273438,1.2499618530273438,0.3295135498046875
1.2499618530273438,1.2499618530273438,0.387420654296875
1.2499618530273438,1.2499618530273438,0.173492431640625
1.2499618530273438,1.2499618530273438,0.2020263671875
1.2499618530273438,1.2499618530273438,0.2005767822265625
1.2499618530273438,1.2499618530273438,0.042877197265625
1.2499618530273438,1.2499618530273438,-0.19561767578125
1.2499618530273438,1.2499618530273438,-0.14862060546875
1.2499618530273438,1.2499618530273438,-0.200042724609375
1.2499618530273438,1.2499618530273438,-0.3887176513671875
1.2499618530273438,1.2499618530273438,-0.446014404296875
1.2499618530273438,1.2499618530273438,-0.410308837890625
1.2499618530273438,1.2499618530273438,-0.42877197265625
1.0332489013671875,1.0762405395507812,-0.4357147216796875
1.2499618530273438,1.2499618530273438,-0.30914306640625
1.2499618530273438,1.2499618530273438,-0.3060150146484375
1.2499618530273438,1.2499618530273438,-0.263214111328125
1.2499618530273438,1.2499618530273438,-0.1898193359375
1.2499618530273438,1.2499618530273438,-0.0363922119140625
1.2499618530273438,1.2499618530273438,-0.06256103515625
1.2499618530273438,1.2499618530273438,0.0502777099609375
1.2499618530273438,1.2499618530273438,0.2490234375
1.2499618530273438,1.2499618530273438,0.17181396484375
1.2499618530273438,1.2499618530273438,0.2045440673828125
1.2499618530273438,1.2499618530273438,0.253753662109375
1.2499618530273438,1.2499618530273438,0.254364013671875
1.2499618530273438,1.2499618530273438,0.22369384765625
1.2499618530273438,1.2499618530273438,0.2790069580078125
0.9397506713867188,0.9202194213867188,0.3308868408203125
1.2499618530273438,1.2499618530273438,0.3493499755859375
1.2499618530273438,1.2499618530273438,0.336456298828125
1.2499618530273438,1.2499618530273438,0.3961181640625
1.2499618530273438,1.2499618530273438,0.2410125732421875
1.2499618530273438,1.2499618530273438,0.191802978515625
1.2499618530273438,1.2499618530273438,0.1873016357421875
1.2499618530273438,1.2499618530273438,-0.0528717041015625
1.2499618530273438,1.2499618530273438,-0.129547119140625
1.2499618530273438,1.2499618530273438,-0.1451873779296875
1.2499618530273438,1.2499618530273438,-0.171356201171875
1.2499618530273438,1.2499618530273438,-0.4224395751953125
1.2499618530273438,1.2499618530273438,-0.4137420654296875
1.2499618530273438,1.2499618530273438,-0.4602813720703125
1.2499618530273438,1.2499618530273438,-0.4693603515625
1.0077667236328125,1.0880661010742188,-0.3740692138671875
1.2499618530273438,1.2499618530273438,-0.2793121337890625
1.2499618530273438,1.2499618530273438,-0.3070068359375
1.2499618530273438,1.2499618530273438,-0.2828216552734375
1.2499618530273438,1.2499618530273438,-0.1291656494140625
1.2499618530273438,1.2499618530273438,-0.0478363037109375
1.2499618530273438,1.2499618530273438,-0.02838134765625
1.2499618530273438,1.2499618530273438,0.0444793701171875
1.2499618530273438,1.2499618530273438,0.2474212646484375
1.2499618530273438,1.2499618530273438,0.194854736328125
1.2499618530273438,1.2499618530273438,0.1035308837890625
1.2499618530273438,1.2499618530273438,0.29083251953125
1.2499618530273438,1.2499618530273438,0.341033935546875
1.2499618530273438,1.2499618530273438,0.2237701416015625
1.2499618530273438,1.2499618530273438,0.2923583984375
0.9976577758789062,0.9320068359375,0.332794189453125
1.2499618530273438,1.2499618530273438,0.274200439453125
1.2499618530273438,1.2499618530273438,0.3752899169921875
1.2499618530273438,1.2499618530273438,0.4425811767578125
1.2499618530273438,1.2499618530273438,0.1788330078125
1.2499618530273438,1.2499618530273438,0.146484375
1.2499618530273438,1.2499618530273438,0.113372802734375
1.2499618530273438,1.2499618530273438,0.0353240966796875
1.2499618530273438,1.2499618530273438,-0.19134521484375
1.2499618530273438,1.2499618530273438,-0.21087646484375
1.2499618530273438,1.2499618530273438,-0.1587677001953125
1.2499618530273438,1.2499618530273438,-0.4193115234375
1.2499618530273438,1.2499618530273438,-0.4372406005859375
1.2499618530273438,1.2499618530273438,-0.4337310791015625
1.2499618530273438,1.2499618530273438,-0.4979705810546875
1.0208892822265625,1.0987472534179688,-0.417327880859375
1.2499618530273438,1.2499618530273438,-0.2685546875
1.2499618530273438,1.2499618530273438,-0.3154754638671875
1.2499618530273438,1.2499618530273438,-0.2315521240234375
1.2499618530273438,1.2499618530273438,-0.074310302734375
1.2499618530273438,1.2499618530273438,-0.00457763671875
1.2499618530273438,1.2499618530273438,-0.024871826171875
1.2499618530273438,1.2499618530273438,0.1432037353515625
1.2499618530273438,1.2499618530273438,0.274810791015625
1.2499618530273438,1.2499618530273438,0.171051025390625
1.2499618530273438,1.2499618530273438,0.214691162109375
1.2499618530273438,1.2499618530273438,0.281219482421875
1.2499618530273438,1.2499618530273438,0.263671875
1.2499618530273438,1.2499618530273438,0.2318572998046875
1.2499618530273438,1.2499618530273438,0.2489471435546875
1.0097503662109375,0.9492874145507812,0.3366851806640625
1.2499618530273438,1.2499618530273438,0.328216552734375
1.2499618530273438,1.2499618530273438,0.3849029541015625
1.2499618530273438,1.2499618530273438,0.331268310546875
1.2499618530273438,1.2499618530273438,0.24993896484375
1.2499618530273438,1.2499618530273438,0.078887939453125
1.2499618530273438,1.2499618530273438,0.182037353515625
1.2499618530273438,1.2499618530273438,0.04913330078125
1.2499618530273438,1.2499618530273438,-0.1358795166015625
1.2499618530273438,1.2499618530273438,-0.1735687255859375
1.2499618530273438,1.2499618530273438,-0.1434326171875
1.2499618530273438,1.2499618530273438,-0.399322509765625
1.2499618530273438,1.2499618530273438,-0.4044342041015625
1.2499618530273438,1.2499618530273438,-0.413665771484375
1.2499618530273438,1.2499618530273438,-0.4763031005859375
1.0364532470703125,1.107177734375,-0.429229736328125
1.2499618530273438,1.2499618530273438,-0.2600860595703125
1.2499618530273438,1.2499618530273438,-0.2460479736328125
1.2499618530273438,1.2499618530273438,-0.2230072021484375
1.2499618530273438,1.2499618530273438,-0.1605224609375
1.2499618530273438,1.2499618530273438,0.03387451171875
1.2499618530273438,1.2499618530273438,-0.078887939453125
1.2499618530273438,1.2499618530273438,0.03631591796875
1.2499618530273438,1.2499618530273438,0.1519012451171875
1.2499618530273438,1.2499618530273438,0.164337158203125
1.2499618530273438,1.2499618530273438,0.1422119140625
1.2499618530273438,1.2499618530273438,0.263671875
1.2499618530273438,1.2499618530273438,0.2630615234375
1.2499618530273438,1.2499618530273438,0.20904541015625
1.2499618530273438,1.2499618530273438,0.248870849609375
1.0225677490234375,0.9836959838867188,0.343780517578125
1.2499618530273438,1.2499618530273438,0.3107452392578125
1.2499618530273438,1.2499618530273438,0.39093017578125
1.2499618530273438,1.2499618530273438,0.36712646484375
1.2499618530273438,1.2499618530273438,0.3237152099609375
1.2499618530273438,1.2499618530273438,0.244293212890625
1.2499618530273438,1.2499618530273438,0.1654052734375
1.2499618530273438,1.2499618530273438,0.02471923828125
1.2499618530273438,1.2499618530273438,-0.1015472412109375
1.2499618530273438,1.2499618530273438,-0.1519775390625
1.2499618530273438,1.2499618530273438,-0.2394866943359375
1.2499618530273438,1.2499618530273438,-0.3241729736328125
1.2499618530273438,1.2499618530273438,-0.415496826171875
1.2499618530273438,1.2499618530273438,-0.4705047607421875
1.2499618530273438,1.2499618530273438,-0.4384613037109375
1.0455322265625,1.1093521118164062,-0.3821563720703125
1.2499618530273438,1.2499618530273438,-0.38818359375
1.2499618530273438,1.2499618530273438,-0.2649688720703125
1.2499618530273438,1.2499618530273438,-0.393829345703125
1.2499618530273438,1.2499618530273438,-0.131683349609375
1.2499618530273438,1.2499618530273438,0.027618408203125
1.2499618530273438,1.2499618530273438,-0.0830078125
1.2499618530273438,1.2499618530273438,0.0649261474609375
1.2499618530273438,1.2499618530273438,0.2544403076171875
1.2499618530273438,1.2499618530273438,0.20599365234375
1.2499618530273438,1.2499618530273438,0.1982879638671875
1.2499618530273438,1.2499618530273438,0.2834320068359375
1.2499618530273438,1.2499618530273438,0.2801513671875
1.2499618530273438,1.2499618530273438,0.2243804931640625
1.2499618530273438,1.2499618530273438,0.3272247314453125
1.0491180419921875,0.9943008422851562,0.32623291015625
1.2499618530273438,1.2499618530273438,0.31707763671875
1.2499618530273438,1.2499618530273438,0.40069580078125
1.2499618530273438,1.2499618530273438,0.3388214111328125
1.2499618530273438,1.2499618530273438,0.2492523193359375
1.2499618530273438,1.2499618530273438,0.13671875
1.2499618530273438,1.2499618530273438,0.11566162109375
1.2499618530273438,1.2499618530273438,0.053253173828125
1.2499618530273438,1.2499618530273438,-0.149383544921875
1.2499618530273438,1.2499618530273438,-0.1180267333984375
1.2499618530273438,1.2499618530273438,-0.2042388916015625
1.2499618530273438,1.2499618530273438,-0.4128265380859375
1.2499618530273438,1.2499618530273438,-0.4180908203125
1.2499618530273438,1.2499618530273438,-0.453338623046875
1.2499618530273438,1.2499618530273438,-0.4543304443359375
1.0237884521484375,1.0943603515625,-0.4788970947265625
1.2499618530273438,1.2499618530273438,-0.2970123291015625
1.2499618530273438,1.2499618530273438,-0.3070068359375
1.2499618530273438,1.2499618530273438,-0.2138519287109375
1.2499618530273438,1.2499618530273438,-0.047607421875
1.2499618530273438,1.2499618530273438,0.0289154052734375
1.2499618530273438,1.2499618530273438,0.0460052490234375
1.2499618530273438,1.2499618530273438,0.0324249267578125
1.2499618530273438,1.2499618530273438,0.2728271484375
1.2499618530273438,1.2499618530273438,0.2100372314453125
1.2499618530273438,1.2499618530273438,0.21392822265625
1.2499618530273438,1.2499618530273438,0.28839111328125
1.2499618530273438,1.2499618530273438,0.298004150390625
1.2499618530273438,1.2499618530273438,0.2407073974609375
1.2499618530273438,1.2499618530273438,0.3177642822265625
1.0455322265625,1.0275650024414062,0.312957763671875
1.2499618530273438,1.2499618530273438,0.2681732177734375
1.2499618530273438,1.2499618530273438,0.3459930419921875
1.2499618530273438,1.2499618530273438,0.3519439697265625
1.2499618530273438,1.2499618530273438,0.2034759521484375
1.2499618530273438,1.2499618530273438,0.18096923828125
1.2499618530273438,1.2499618530273438,0.1889801025390625
1.2499618530273438,1.2499618530273438,0.0048828125
1.2499618530273438,1.2499618530273438,-0.1703643798828125
1.2499618530273438,1.2499618530273438,-0.1642608642578125
1.2499618530273438,1.2499618530273438,-0.203399658203125
1.2499618530273438,1.2499618530273438,-0.373382568359375
1.2499618530273438,1.2499618530273438,-0.435791015625
1.2499618530273438,1.2499618530273438,-0.422821044921875
1.2499618530273438,1.2499618530273438,-0.4691314697265625
1.0166168212890625,1.1050796508789062,-0.3667449951171875
1.2499618530273438,1.2499618530273438,-0.2825927734375
1.2499618530273438,1.2499618530273438,-0.3087615966796875
1.2499618530273438,1.2499618530273438,-0.280609130859375
1.2499618530273438,1.2499618530273438,-0.0799560546875
1.2499618530273438,1.2499618530273438,-0.0328826904296875
1.2499618530273438,1.2499618530273438,0.0168609619140625
1.2499618530273438,1.2499618530273438,0.0447845458984375
1.2499618530273438,1.2499618530273438,0.1882171630859375
1.2499618530273438,1.2499618530273438,0.187530517578125
1.2499618530273438,1.2499618530273438,0.146484375
1.2499618530273438,1.2499618530273438,0.2447509765625
1.2499618530273438,1.2499618530273438,0.317840576171875
1.2499618530273438,1.2499618530273438,0.215301513671875
1.2499618530273438,1.2499618530273438,0.2820587158203125
1.0878753662109375,1.0543441772460938,0.3327178955078125
1.2499618530273438,1.2499618530273438,0.302734375
1.2499618530273438,1.2499618530273438,0.361785888671875
1.2499618530273438,1.2499618530273438,0.3946685791015625
1.2499618530273438,1.2499618530273438,0.2036285400390625
1.2499618530273438,1.2499618530273438,0.21270751953125
1.2499618530273438,1.2499618530273438,0.202789306640625
1.2499618530273438,1.2499618530273438,-0.0656890869140625
1.2499618530273438,1.2499618530273438,-0.2056121826171875
1.2499618530273438,1.2499618530273438,-0.1642608642578125
1.2499618530273438,1.2499618530273438,-0.21820068359375
1.2499618530273438,1.2499618530273438,-0.4064178466796875
1.2499618530273438,1.2499618530273438,-0.4274749755859375
1.2499618530273438,1.2499618530273438,-0.4148101806640625
1.2499618530273438,1.2499618530273438,-0.464324951171875
1.0407638549804688,1.1089324951171875,-0.395660400390625
1.2499618530273438,1.2499618530273438,-0.279083251953125
1.2499618530273438,1.2499618530273438,-0.272064208984375
1.2499618530273438,1.2499618530273438,-0.263214111328125
1.2499618530273438,1.2499618530273438,-0.0461578369140625
1.2499618530273438,1.2499618530273438,-0.0133514404296875
1.2499618530273438,1.2499618530273438,-0.068359375
1.2499618530273438,1.2499618530273438,0.0414276123046875
1.2499618530273438,1.2499618530273438,0.216522216796875
1.2499618530273438,1.2499618530273438,0.2655792236328125
1.2499618530273438,1.2499618530273438,0.1129913330078125
1.2499618530273438,1.2499618530273438,0.305328369140625
1.2499618530273438,1.2499618530273438,0.2851104736328125
1.2499618530273438,1.2499618530273438,0.2588653564453125
1.2499618530273438,1.2499618530273438,0.2838134765625
1.101226806640625,1.0512161254882812,0.2747344970703125
1.2499618530273438,1.2499618530273438,0.229949951171875
1.2499618530273438,1.2499618530273438,0.3659820556640625
1.2499618530273438,1.2499618530273438,0.3984832763671875
1.2499618530273438,1.2499618530273438,0.223236083984375
1.2499618530273438,1.2499618530273438,0.1540374755859375
1.2499618530273438,1.2499618530273438,0.15869140625
1.2499618530273438,1.2499618530273438,0.012054443359375
1.2499618530273438,1.2499618530273438,-0.173187255859375
1.2499618530273438,1.2499618530273438,-0.1831817626953125
1.2499618530273438,1.2499618530273438,-0.2371978759765625
1.2499618530273438,1.2499618530273438,-0.4091644287109375
1.2499618530273438,1.2499618530273438,-0.4022979736328125
1.2499618530273438,1.2499618530273438,-0.39825439453125
1.2499618530273438,1.2499618530273438,-0.4563140869140625
1.0802459716796875,1.14013671875,-0.400390625
1.2499618530273438,1.2499618530273438,-0.255584716796875
1.2499618530273438,1.2499618530273438,-0.231475830078125
1.2499618530273438,1.2499618530273438,-0.214080810546875
1.2499618530273438,1.2499618530273438,-0.0664520263671875
1.2499618530273438,1.2499618530273438,0.02044677734375
1.2499618530273438,1.2499618530273438,0.0058746337890625
1.2499618530273438,1.2499618530273438,0.0424957275390625
1.2499618530273438,1.2499618530273438,0.19134521484375
1.2499618530273438,1.2499618530273438,0.157012939453125
1.2499618530273438,1.2499618530273438,0.22613525390625
1.2499618530273438,1.2499618530273438,0.2947998046875
1.2499618530273438,1.2499618530273438,0.24932861328125
1.2499618530273438,1.2499618530273438,0.2286529541015625
1.2499618530273438,1.2499618530273438,0.2834320068359375
1.1215972900390625,1.0791015625,0.3514862060546875
1.2499618530273438,1.2499618530273438,0.2993011474609375
1.2499618530273438,1.2499618530273438,0.351409912109375
1.2499618530273438,1.2499618530273438,0.4339599609375
1.2499618530273438,1.2499618530273438,0.216064453125
1.2499618530273438,1.2499618530273438,0.1198577880859375
1.2499618530273438,1.2499618530273438,0.1351165771484375
1.2499618530273438,1.2499618530273438,0.054473876953125
1.2499618530273438,1.2499618530273438,-0.1153564453125
1.2499618530273438,1.2499618530273438,-0.148468017578125
1.2499618530273438,1.2499618530273438,-0.227813720703125
1.2499618530273438,1.2499618530273438,-0.394287109375
1.2499618530273438,1.2499618530273438,-0.4375457763671875
1.2499618530273438,1.2499618530273438,-0.4224395751953125
1.2499618530273438,1.2499618530273438,-0.474853515625
1.113739013671875,1.2121200561523438,-0.4225921630859375
1.2499618530273438,1.2499618530273438,-0.329742431640625
1.2499618530273438,1.2499618530273438,-0.2500152587890625
1.2499618530273438,1.2499618530273438,-0.2516937255859375
1.2499618530273438,1.2499618530273438,-0.1479339599609375
1.2499618530273438,1.2499618530273438,-0.015106201171875
1.2499618530273438,1.2499618530273438,0.016326904296875
1.2499618530273438,1.2499618530273438,0.0749969482421875
1.2499618530273438,1.2499618530273438,0.2639007568359375
1.2499618530273438,1.2499618530273438,0.18798828125
1.2499618530273438,1.2499618530273438,0.1995086669921875
1.2499618530273438,1.2499618530273438,0.280303955078125
1.2499618530273438,1.2499618530273438,0.3073883056640625
1.2499618530273438,1.2499618530273438,0.1513671875
1.2499618530273438,1.2499618530273438,0.29083251953125
1.145477294921875,1.1071395874023438,0.3461456298828125
1.2499618530273438,1.2499618530273438,0.29998779296875
1.2499618530273438,1.2499618530273438,0.3835296630859375
1.2499618530273438,1.2499618530273438,0.4034423828125
1.2499618530273438,1.2499618530273438,0.267486572265625
1.2499618530273438,1.2499618530273438,0.1477813720703125
1.2499618530273438,1.2499618530273438,0.2188873291015625
1.2499618530273438,1.2499618530273438,-0.0189971923828125
1.2499618530273438,1.2499618530273438,-0.102386474609375
1.2499618530273438,1.2499618530273438,-0.206298828125
1.2499618530273438,1.2499618530273438,-0.178680419921875
1.2499618530273438,1.2499618530273438,-0.403289794921875
1.2499618530273438,1.2499618530273438,-0.452728271484375
1.2499618530273438,1.2499618530273438,-0.402374267578125
1.2499618530273438,1.2499618530273438,-0.457000732421875
1.1804580688476562,1.2224960327148438,-0.3954315185546875
1.2499618530273438,1.2499618530273438,-0.2490234375
1.2499618530273438,1.2499618530273438,-0.2541351318359375
1.2499618530273438,1.2499618530273438,-0.2024078369140625
1.2499618530273438,1.2499618530273438,-0.1166534423828125
1.2499618530273438,1.2499618530273438,-0.0634765625
1.2499618530273438,1.2499618530273438,0.0063323974609375
1.2499618530273438,1.2499618530273438,0.127716064453125
1.2499618530273438,1.2499618530273438,0.1865386962890625
1.2499618530273438,1.2499618530273438,0.249481201171875
1.2499618530273438,1.2499618530273438,0.1956939697265625
1.2499618530273438,1.2499618530273438,0.292205810546875
1.2499618530273438,1.2499618530273438,0.234375
1.2499618530273438,1.2499618530273438,0.2325439453125
1.2499618530273438,1.2499618530273438,0.3260040283203125
1.1521148681640625,1.1136245727539062,0.3408050537109375
1.2499618530273438,1.2499618530273438,0.3516387939453125
1.2499618530273438,1.2499618530273438,0.314178466796875
1.2499618530273438,1.2499618530273438,0.43121337890625
1.2499618530273438,1.2499618530273438,0.250091552734375
1.2499618530273438,1.2499618530273438,0.2651214599609375
1.2499618530273438,1.2499618530273438,0.1361846923828125
1.2499618530273438,1.2499618530273438,-0.0093841552734375
1.2499618530273438,1.2499618530273438,-0.1955413818359375
1.2499618530273438,1.2499618530273438,-0.169219970703125
1.2499618530273438,1.2499618530273438,-0.2886962890625
1.2499618530273438,1.2499618530273438,-0.4315185546875
1.2499618530273438,1.2499618530273438,-0.3964996337890625
1.2499618530273438,1.2499618530273438,-0.399017333984375
1.2499618530273438,1.2499618530273438,-0.45318603515625
1.1317062377929688,1.24603271484375,-0.3934478759765625
1.2499618530273438,1.2499618530273438,-0.308685302734375
1.2499618530273438,1.2499618530273438,-0.2533721923828125
1.2499618530273438,1.2499618530273438,-0.257568359375
1.2499618530273438,1.2499618530273438,-0.1549530029296875
1.2499618530273438,1.2499618530273438,-0.0225830078125
1.2499618530273438,1.2499618530273438,-0.029754638671875
1.2499618530273438,1.2499618530273438,0.1302337646484375
1.2499618530273438,1.2499618530273438,0.225067138671875
1.2499618530273438,1.2499618530273438,0.1953125
1.2499618530273438,1.2499618530273438,0.2081298828125
1.2499618530273438,1.2499618530273438,0.2539825439453125
1.2499618530273438,1.2499618530273438,0.2433013916015625
1.2499618530273438,1.2499618530273438,0.2031707763671875
1.2499618530273438,1.2499618530273438,0.3217315673828125
1.1615371704101562,1.0929107666015625,0.3142547607421875
1.2499618530273438,1.2499618530273438,0.3174591064453125
1.2499618530273438,1.2499618530273438,0.34942626953125
1.2499618530273438,1.2499618530273438,0.4918670654296875
1.2499618530273438,1.2499618530273438,0.2947998046875
1.2499618530273438,1.2499618530273438,0.2045440673828125
1.2499618530273438,1.2499618530273438,0.0968170166015625
1.2499618530273438,1.2499618530273438,-0.0086212158203125
1.2499618530273438,1.2499618530273438,-0.090484619140625
1.2499618530273438,1.2499618530273438,-0.1506805419921875
1.2499618530273438,1.2499618530273438,-0.207366943359375
1.2499618530273438,1.2499618530273438,-0.444793701171875
1.2499618530273438,1.2499618530273438,-0.4187774658203125
1.2499618530273438,1.2499618530273438,-0.4454803466796875
1.2499618530273438,1.2499618530273438,-0.4900360107421875
1.211700439453125,1.2499618530273438,-0.4241180419921875
1.2499618530273438,1.2499618530273438,-0.29296875
1.2499618530273438,1.2499618530273438,-0.274810791015625
1.2499618530273438,1.2499618530273438,-0.3029632568359375
1.2499618530273438,1.2499618530273438,-0.0102996826171875
1.2499618530273438,1.2499618530273438,-0.0225067138671875
1.2499618530273438,1.2499618530273438,-0.0528717041015625
1.2499618530273438,1.2499618530273438,0.1496124267578125
1.2499618530273438,1.2499618530273438,0.2044677734375
1.2499618530273438,1.2499618530273438,0.1871490478515625
1.2499618530273438,1.2499618530273438,0.14190673828125
1.2499618530273438,1.2499618530273438,0.219573974609375
1.2499618530273438,1.2499618530273438,0.257415771484375
1.2499618530273438,1.2499618530273438,0.2629852294921875
1.2499618530273438,1.2499618530273438,0.2956390380859375
1.1650848388671875,1.0920333862304688,0.4019927978515625
1.2499618530273438,1.2499618530273438,0.347137451171875
1.2499618530273438,1.2499618530273438,0.398712158203125
1.2499618530273438,1.2499618530273438,0.442047119140625
1.2499618530273438,1.2499618530273438,0.29876708984375
1.2499618530273438,1.2499618530273438,0.1502227783203125
1.2499618530273438,1.2499618530273438,0.147705078125
1.2499618530273438,1.2499618530273438,-0.0820159912109375
1.2499618530273438,1.2499618530273438,-0.2283477783203125
1.2499618530273438,1.2499618530273438,-0.1976776123046875
1.2499618530273438,1.2499618530273438,-0.12115478515625
1.2499618530273438,1.2499618530273438,-0.43365478515625
1.2499618530273438,1.2499618530273438,-0.476531982421875
1.2499618530273438,1.2499618530273438,-0.485076904296875
1.2499618530273438,1.2499618530273438,-0.4546356201171875
1.2476348876953125,1.2499618530273438,-0.411529541015625
1.2499618530273438,1.2499618530273438,-0.2814483642578125
1.2499618530273438,1.2499618530273438,-0.2524566650390625
1.2499618530273438,1.2499618530273438,-0.2512359619140625
1.2499618530273438,1.2499618530273438,-0.00335693359375
1.2499618530273438,1.2499618530273438,-0.0820159912109375
1.2499618530273438,1.2499618530273438,0.02838134765625
1.2499618530273438,1.2499618530273438,0.05462646484375
1.2499618530273438,1.2499618530273438,0.2325439453125
1.2499618530273438,1.2499618530273438,0.1813507080078125
1.2499618530273438,1.2499618530273438,0.173797607421875
1.2499618530273438,1.2499618530273438,0.3038787841796875
1.2499618530273438,1.2499618530273438,0.2274322509765625
1.2499618530273438,1.2499618530273438,0.22705078125
1.2499618530273438,1.2499618530273438,0.32623291015625
1.1828231811523438,1.1552810668945312,0.3265380859375
1.2499618530273438,1.2499618530273438,0.308837890625
1.2499618530273438,1.2499618530273438,0.370025634765625
1.2499618530273438,1.2499618530273438,0.4254150390625
1.2499618530273438,1.2499618530273438,0.2962493896484375
1.2499618530273438,1.2499618530273438,0.163726806640625
1.2499618530273438,1.2499618530273438,0.1950836181640625
1.2499618530273438,1.2499618530273438,-0.046844482421875
1.2499618530273438,1.2499618530273438,-0.104827880859375
1.2499618530273438,1.2499618530273438,-0.1999664306640625
1.2499618530273438,1.2499618530273438,-0.2606964111328125
1.2499618530273438,1.2499618530273438,-0.440826416015625
1.2499618530273438,1.2499618530273438,-0.528411865234375
1.2499618530273438,1.2499618530273438,-0.40435791015625
1.2499618530273438,1.2499618530273438,-0.4656219482421875
1.2499618530273438,1.2499618530273438,-0.4116058349609375
1.2499618530273438,1.2499618530273438,-0.2767181396484375
1.2499618530273438,1.2499618530273438,-0.2584075927734375
1.2499618530273438,1.2499618530273438,-0.2048492431640625
1.2499618530273438,1.2499618530273438,-0.2020263671875
1.2499618530273438,1.2499618530273438,-0.018768310546875
1.2499618530273438,1.2499618530273438,-0.073699951171875
1.2499618530273438,1.2499618530273438,0.0533294677734375
1.2499618530273438,1.2499618530273438,0.223236083984375
1.2499618530273438,1.2499618530273438,0.1844024658203125
1.2499618530273438,1.2499618530273438,0.2213287353515625
1.2499618530273438,1.2499618530273438,0.25665283203125
1.2499618530273438,1.2499618530273438,0.247039794921875
1.2499618530273438,1.2499618530273438,0.193634033203125
1.2499618530273438,1.2499618530273438,0.26580810546875
1.2333297729492188,1.1937332153320312,0.34149169921875
1.2499618530273438,1.2499618530273438,0.296630859375
1.2499618530273438,1.2499618530273438,0.396575927734375
1.2499618530273438,1.2499618530273438,0.4035186767578125
1.2499618530273438,1.2499618530273438,0.2436065673828125
1.2499618530273438,1.2499618530273438,0.1615142822265625
1.2499618530273438,1.2499618530273438,0.1699066162109375
1.2499618530273438,1.2499618530273438,-0.0140380859375
1.2499618530273438,1.2499618530273438,-0.1953125
1.2499618530273438,1.2499618530273438,-0.2054595947265625
1.2499618530273438,1.2499618530273438,-0.2707672119140625
1.2499618530273438,1.2499618530273438,-0.4061126708984375
1.2499618530273438,1.2499618530273438,-0.452117919921875
1.2499618530273438,1.2499618530273438,-0.4399871826171875
1.2499618530273438,1.2499618530273438,-0.4625701904296875
1.2499618530273438,1.2499618530273438,-0.3729248046875
1.2499618530273438,1.2499618530273438,-0.2685546875
1.2499618530273438,1.2499618530273438,-0.3810882568359375
1.2499618530273438,1.2499618530273438,-0.2289581298828125
1.2499618530273438,1.2499618530273438,-0.00152587890625
1.2499618530273438,1.2499618530273438,-0.0022125244140625
1.2499618530273438,1.2499618530273438,0.0722503662109375
1.2499618530273438,1.2499618530273438,0.1352691650390625
1.2499618530273438,1.2499618530273438,0.2178192138671875
1.2499618530273438,1.2499618530273438,0.2526092529296875
1.2499618530273438,1.2499618530273438,0.18524169921875
1.2499618530273438,1.2499618530273438,0.2789306640625
1.2499618530273438,1.2499618530273438,0.25115966796875
1.2499618530273438,1.2499618530273438,0.2428436279296875
1.2499618530273438,1.2499618530273438,0.273284912109375
1.214447021484375,1.2204360961914062,0.32684326171875
1.2499618530273438,1.2499618530273438,0.272064208984375
1.2499618530273438,1.2499618530273438,0.334625244140625
1.2499618530273438,1.2499618530273438,0.32684326171875
1.2499618530273438,1.2499618530273438,0.2813720703125
1.2499618530273438,1.2499618530273438,0.0989532470703125
1.2499618530273438,1.2499618530273438,0.1290130615234375
1.2499618530273438,1.2499618530273438,-0.001983642578125
1.2499618530273438,1.2499618530273438,-0.167083740234375
1.2499618530273438,1.2499618530273438,-0.238494873046875
1.2499618530273438,1.2499618530273438,-0.1837921142578125
1.2499618530273438,1.2499618530273438,-0.4084014892578125
1.2499618530273438,1.2499618530273438,-0.41961669921875
1.2499618530273438,1.2499618530273438,-0.4380035400390625
1.2499618530273438,1.2499618530273438,-0.433807373046875
1.2499618530273438,1.2499618530273438,-0.3853607177734375
1.2499618530273438,1.2499618530273438,-0.3069305419921875
1.2499618530273438,1.2499618530273438,-0.329132080078125
1.2499618530273438,1.2499618530273438,-0.2036285400390625
1.2499618530273438,1.2499618530273438,-0.153961181640625
1.2499618530273438,1.2499618530273438,0.0507354736328125
1.2499618530273438,1.2499618530273438,-0.0504302978515625
1.2499618530273438,1.2499618530273438,0.1569366455078125
1.2499618530273438,1.2499618530273438,0.1605987548828125
1.2499618530273438,1.2499618530273438,0.2410125732421875
1.2499618530273438,1.2499618530273438,0.1776123046875
1.2499618530273438,1.2499618530273438,0.29754638671875
1.2499618530273438,1.2499618530273438,0.2524566650390625
1.2499618530273438,1.2499618530273438,0.2381134033203125
1.2499618530273438,1.2499618530273438,0.3218841552734375
1.2499618530273438,1.2369918823242188,0.353546142578125
1.2499618530273438,1.2499618530273438,0.3505706787109375
1.2499618530273438,1.2499618530273438,0.3882598876953125
1.2499618530273438,1.2499618530273438,0.4863739013671875
1.2499618530273438,1.2499618530273438,0.2862548828125
1.2499618530273438,1.2499618530273438,0.1909637451171875
1.2499618530273438,1.2499618530273438,0.144195556640625
1.2499618530273438,1.2499618530273438,0.0008392333984375
1.2499618530273438,1.2499618530273438,-0.1342010498046875
1.2499618530273438,1.2499618530273438,-0.19073486328125
1.2499618530273438,1.2499618530273438,-0.3375244140625
1.2499618530273438,1.2499618530273438,-0.3696441650390625
1.2499618530273438,1.2499618530273438,-0.4119873046875
1.2499618530273438,1.2499618530273438,-0.4044342041015625
1.2499618530273438,1.2499618530273438,-0.45074462890625
1.2499618530273438,1.2499618530273438,-0.3814697265625
1.2499618530273438,1.2499618530273438,-0.2753448486328125
1.2499618530273438,1.2499618530273438,-0.303955078125
1.2499618530273438,1.2499618530273438,-0.2649688720703125
1.2499618530273438,1.2499618530273438,-0.1375579833984375
1.2499618530273438,1.2499618530273438,-0.09674072265625
1.2499618530273438,1.2499618530273438,-0.045166015625
1.2499618530273438,1.2499618530273438,0.0904083251953125
1.2499618530273438,1.2499618530273438,0.2030181884765625
1.2499618530273438,1.2499618530273438,0.1795196533203125
1.2499618530273438,1.2499618530273438,0.219573974609375
1.2499618530273438,1.2499618530273438,0.2325439453125
1.2499618530273438,1.2499618530273438,0.27984619140625
1.2499618530273438,1.2499618530273438,0.2535247802734375
1.2499618530273438,1.2499618530273438,0.2883148193359375
1.2499618530273438,1.2499618530273438,0.31219482421875
1.2499618530273438,1.2499618530273438,0.3249359130859375
1.2499618530273438,1.2499618530273438,0.37872314453125
1.2499618530273438,1.2499618530273438,0.3232574462890625
1.2499618530273438,1.2499618530273438,0.3003692626953125
1.2499618530273438,1.2499618530273438,0.1732635498046875
1.2499618530273438,1.2499618530273438,0.1251983642578125
1.2499618530273438,1.2499618530273438,-0.086822509765625
1.2499618530273438,1.2499618530273438,-0.106048583984375
1.2499618530273438,1.2499618530273438,-0.1674652099609375
1.2499618530273438,1.2499618530273438,-0.24261474609375
1.2499618530273438,1.2499618530273438,-0.4006195068359375
1.2499618530273438,1.2499618530273438,-0.439300537109375
1.2499618530273438,1.2499618530273438,-0.430908203125
1.2456512451171875,1.2499618530273438,-0.462799072265625
1.2499618530273438,1.2499618530273438,-0.37567138671875
1.2499618530273438,1.2499618530273438,-0.2489471435546875
1.2499618530273438,1.2499618530273438,-0.3206634521484375
1.2499618530273438,1.2499618530273438,-0.3125762939453125
1.2499618530273438,1.2499618530273438,-0.1576995849609375
1.2499618530273438,1.2499618530273438,-0.05035400390625
1.2499618530273438,1.2499618530273438,-0.021820068359375
1.2499618530273438,1.2499618530273438,0.1580810546875
1.2499618530273438,1.2499618530273438,0.2130126953125
1.2499618530273438,1.2499618530273438,0.2960205078125
1.2499618530273438,1.2499618530273438,0.2516937255859375
1.2499618530273438,1.2499618530273438,0.364837646484375
1.2499618530273438,1.2499618530273438,0.260009765625
1.2499618530273438,1.2499618530273438,0.2469635009765625
1.2499618530273438,1.2499618530273438,0.243072509765625
1.2499618530273438,1.2499618530273438,0.34332275390625
1.2499618530273438,1.2499618530273438,0.28472900390625
1.2499618530273438,1.2499618530273438,0.3923797607421875
1.2499618530273438,1.2499618530273438,0.4018402099609375
1.2499618530273438,1.2499618530273438,0.200347900390625
1.2499618530273438,1.2499618530273438,0.13641357421875
1.2499618530273438,1.2499618530273438,0.1677703857421875
1.2499618530273438,1.2499618530273438,-0.0323486328125
1.2499618530273438,1.2499618530273438,-0.1534271240234375
1.2499618530273438,1.2499618530273438,-0.154266357421875
1.2499618530273438,1.2499618530273438,-0.247039794921875
1.2499618530273438,1.2499618530273438,-0.3890228271484375
1.2499618530273438,1.2499618530273438,-0.511627197265625
1.2499618530273438,1.2499618530273438,-0.406341552734375
1.2322998046875,1.2499618530273438,-0.47088623046875
1.2499618530273438,1.2499618530273438,-0.382080078125
1.2499618530273438,1.2499618530273438,-0.3035736083984375
1.2499618530273438,1.2499618530273438,-0.28533935546875
1.2499618530273438,1.2499618530273438,-0.2567291259765625
1.2499618530273438,1.2499618530273438,-0.156402587890625
1.2499618530273438,1.2499618530273438,0.056610107421875
1.2499618530273438,1.2499618530273438,-0.0012969970703125
1.2499618530273438,1.2499618530273438,0.15625
1.2499618530273438,1.2499618530273438,0.206756591796875
1.2499618530273438,1.2499618530273438,0.21484375
1.2499618530273438,1.2499618530273438,0.1506805419921875
1.2499618530273438,1.2499618530273438,0.281524658203125
1.2499618530273438,1.2499618530273438,0.2228546142578125
1.2499618530273438,1.2499618530273438,0.1983642578125
1.2499618530273438,1.2420272827148438,0.2829742431640625
1.2499618530273438,1.2499618530273438,0.322113037109375
1.2499618530273438,1.2499618530273438,0.289306640625
1.2499618530273438,1.2499618530273438,0.3792572021484375
1.2499618530273438,1.2499618530273438,0.42938232421875
1.2499618530273438,1.2499618530273438,0.1937103271484375
1.2499618530273438,1.2499618530273438,0.1569366455078125
1.2499618530273438,1.2499618530273438,0.18310546875
1.2499618530273438,1.2499618530273438,-0.0350189208984375
1.2499618530273438,1.2499618530273438,-0.145263671875
1.2499618530273438,1.2499618530273438,-0.181884765625
1.2499618530273438,1.2499618530273438,-0.2103424072265625
1.2499618530273438,1.2499618530273438,-0.416259765625
1.2499618530273438,1.2499618530273438,-0.4233551025390625
1.2499618530273438,1.2499618530273438,-0.42633056640625
1.23321533203125,1.2499618530273438,-0.50567626953125
1.2499618530273438,1.2499618530273438,-0.3800201416015625
1.2499618530273438,1.2499618530273438,-0.2901458740234375
1.2499618530273438,1.2499618530273438,-0.3055572509765625
1.2499618530273438,1.2499618530273438,-0.27130126953125
1.2499618530273438,1.2499618530273438,-0.1049041748046875
1.2499618530273438,1.2499618530273438,0.0351715087890625
1.2499618530273438,1.2499618530273438,-0.009613037109375
1.2499618530273438,1.2499618530273438,0.1926422119140625
1.2499618530273438,1.2499618530273438,0.2893829345703125
1.2499618530273438,1.2499618530273438,0.242462158203125
1.2499618530273438,1.2499618530273438,0.2112579345703125
1.2499618530273438,1.2499618530273438,0.1914215087890625
1.2499618530273438,1.2499618530273438,0.2783203125
1.2499618530273438,1.2499618530273438,0.222320556640625
1.2499618530273438,1.2150192260742188,0.2610015869140625
1.2499618530273438,1.2499618530273438,0.2870941162109375
1.2499618530273438,1.2499618530273438,0.2985382080078125
1.2499618530273438,1.2499618530273438,0.4079437255859375
1.2499618530273438,1.2499618530273438,0.336761474609375
1.2499618530273438,1.2499618530273438,0.223846435546875
1.2499618530273438,1.2499618530273438,0.10589599609375
1.2499618530273438,1.2499618530273438,0.1725006103515625
1.2499618530273438,1.2499618530273438,-0.0447845458984375
1.2499618530273438,1.2499618530273438,-0.163726806640625
1.2499618530273438,1.2499618530273438,-0.2585601806640625
1.2499618530273438,1.2499618530273438,-0.2422332763671875
1.2499618530273438,1.2499618530273438,-0.4343414306640625
1.2499618530273438,1.2499618530273438,-0.4853057861328125
1.2499618530273438,1.2499618530273438,-0.40557861328125
1.2213516235351562,1.2499618530273438,-0.4659271240234375
1.2499618530273438,1.2499618530273438,-0.3861236572265625
1.2499618530273438,1.2499618530273438,-0.2356719970703125
1.2499618530273438,1.2499618530273438,-0.3087615966796875
1.2499618530273438,1.2499618530273438,-0.2215576171875
1.2499618530273438,1.2499618530273438,-0.1068878173828125
1.2499618530273438,1.2499618530273438,-0.08758544921875
1.2499618530273438,1.2499618530273438,-0.0579833984375
1.2499618530273438,1.2499618530273438,0.1847076416015625
1.2499618530273438,1.2499618530273438,0.2838897705078125
1.2499618530273438,1.2499618530273438,0.173187255859375
1.2499618530273438,1.2499618530273438,0.196380615234375
1.2499618530273438,1.2499618530273438,0.2559661865234375
1.2499618530273438,1.2499618530273438,0.265045166015625
1.2499618530273438,1.2499618530273438,0.22674560546875
1.2499618530273438,1.2011337280273438,0.31219482421875
1.2499618530273438,1.2499618530273438,0.311279296875
1.2499618530273438,1.2499618530273438,0.312652587890625
1.2499618530273438,1.2499618530273438,0.3083038330078125
1.2499618530273438,1.2499618530273438,0.311126708984375
1.2499618530273438,1.2499618530273438,0.2840423583984375
1.2499618530273438,1.2499618530273438,0.18402099609375
1.2499618530273438,1.2499618530273438,0.17822265625
1.2499618530273438,1.2499618530273438,-0.1222991943359375
1.2499618530273438,1.2499618530273438,-0.103607177734375
1.2499618530273438,1.2499618530273438,-0.164947509765625
1.2499618530273438,1.2499618530273438,-0.2759552001953125
1.2499618530273438,1.2499618530273438,-0.449981689453125
1.2499618530273438,1.2499618530273438,-0.4695892333984375
1.2499618530273438,1.2499618530273438,-0.4034423828125
1.2499618530273438,1.2499618530273438,-0.4467010498046875
1.2499618530273438,1.2499618530273438,-0.388031005859375
1.2499618530273438,1.2499618530273438,-0.32958984375
1.2499618530273438,1.2499618530273438,-0.31646728515625
1.2499618530273438,1.2499618530273438,-0.140380859375
1.2499618530273438,1.2499618530273438,-0.01129150390625
1.2499618530273438,1.2499618530273438,-0.0403594970703125
1.2499618530273438,1.2499618530273438,0.016937255859375
1.2499618530273438,1.2499618530273438,0.1220703125
1.2499618530273438,1.2499618530273438,0.223541259765625
1.2499618530273438,1.2499618530273438,0.1941680908203125
1.2499618530273438,1.2499618530273438,0.233001708984375
1.2499618530273438,1.2499618530273438,0.292816162109375
1.2499618530273438,1.2499618530273438,0.2780914306640625
1.2499618530273438,1.2499618530273438,0.210113525390625
1.2499618530273438,1.194305419921875,0.2516937255859375
1.2499618530273438,1.2499618530273438,0.2616119384765625
1.2499618530273438,1.2499618530273438,0.3192138671875
1.2499618530273438,1.2499618530273438,0.4119873046875
1.2499618530273438,1.2499618530273438,0.395355224609375
1.2499618530273438,1.2499618530273438,0.2922821044921875
1.2499618530273438,1.2499618530273438,0.151519775390625
1.2499618530273438,1.2499618530273438,0.076446533203125
1.2499618530273438,1.2499618530273438,-0.0579071044921875
1.2499618530273438,1.2499618530273438,-0.144195556640625
1.2499618530273438,1.2499618530273438,-0.188140869140625
1.2499618530273438,1.2499618530273438,-0.2217864990234375
1.2499618530273438,1.2499618530273438,-0.4483795166015625
1.2499618530273438,1.2499618530273438,-0.460968017578125
1.2499618530273438,1.2499618530273438,-0.400848388671875
1.2290191650390625,1.2499618530273438,-0.4431915283203125
1.2499618530273438,1.2499618530273438,-0.3961181640625
1.2499618530273438,1.2499618530273438,-0.28289794921875
1.2499618530273438,1.2499618530273438,-0.25634765625
1.2499618530273438,1.2499618530273438,-0.272064208984375
1.2499618530273438,1.2499618530273438,-0.1061248779296875
1.2499618530273438,1.2499618530273438,-0.091705322265625
1.2499618530273438,1.2499618530273438,-0.111846923828125
1.2499618530273438,1.2499618530273438,0.1401519775390625
1.2499618530273438,1.2499618530273438,0.2459716796875
1.2499618530273438,1.2499618530273438,0.1964569091796875
1.2499618530273438,1.2499618530273438,0.2179718017578125
1.2499618530273438,1.2499618530273438,0.295562744140625
1.2499618530273438,1.2499618530273438,0.28228759765625
1.2499618530273438,1.2499618530273438,0.1938629150390625
1.24053955078125,1.1908721923828125,0.2498626708984375
1.2499618530273438,1.2441635131835938,0.296630859375
1.2499618530273438,1.2499618530273438,0.305328369140625
1.2499618530273438,1.2499618530273438,0.3974151611328125
1.2499618530273438,1.2499618530273438,0.3664398193359375
1.2499618530273438,1.2499618530273438,0.25390625
1.2499618530273438,1.2499618530273438,0.0820159912109375
1.2499618530273438,1.2499618530273438,0.154876708984375
1.2499618530273438,1.2499618530273438,-0.0719451904296875
1.2499618530273438,1.2499618530273438,-0.1625823974609375
1.2499618530273438,1.2499618530273438,-0.1647186279296875
1.2499618530273438,1.2499618530273438,-0.2323150634765625
1.2499618530273438,1.2499618530273438,-0.4149627685546875
1.2499618530273438,1.2499618530273438,-0.44708251953125
1.2499618530273438,1.2499618530273438,-0.4204559326171875
1.2154006958007812,1.2499618530273438,-0.4802703857421875
1.2499618530273438,1.2499618530273438,-0.408782958984375
1.2499618530273438,1.2499618530273438,-0.2977752685546875
1.2499618530273438,1.2499618530273438,-0.264892578125
1.2499618530273438,1.2499618530273438,-0.2671051025390625
1.2499618530273438,1.2499618530273438,-0.0670623779296875
1.2499618530273438,1.2499618530273438,-0.02655029296875
1.2499618530273438,1.2499618530273438,-0.0762176513671875
1.2499618530273438,1.2499618530273438,0.1397705078125
1.2499618530273438,1.2499618530273438,0.246734619140625
1.2499618530273438,1.2499618530273438,0.2080535888671875
1.2499618530273438,1.2499618530273438,0.186614990234375
1.2499618530273438,1.2499618530273438,0.3118896484375
1.2499618530273438,1.2499618530273438,0.2649688720703125
1.2499618530273438,1.2499618530273438,0.278167724609375
1.2467193603515625,1.1893844604492188,0.301055908203125
1.2499618530273438,1.2499618530273438,0.273284912109375
1.2499618530273438,1.2499618530273438,0.2515411376953125
1.2499618530273438,1.2499618530273438,0.3644561767578125
1.2499618530273438,1.2499618530273438,0.33172607421875
1.2499618530273438,1.2499618530273438,0.249176025390625
1.2499618530273438,1.2499618530273438,0.167388916015625
1.2499618530273438,1.2499618530273438,0.1276397705078125
1.2499618530273438,1.2499618530273438,-0.058135986328125
1.2499618530273438,1.2499618530273438,-0.123138427734375
1.2499618530273438,1.2499618530273438,-0.15960693359375
1.2499618530273438,1.2499618530273438,-0.2959442138671875
1.2499618530273438,1.2499618530273438,-0.3993988037109375
1.2499618530273438,1.2499618530273438,-0.458984375
1.2499618530273438,1.2499618530273438,-0.451507568359375
1.2046432495117188,1.2499618530273438,-0.453948974609375
1.2499618530273438,1.2499618530273438,-0.4068756103515625
1.2499618530273438,1.2499618530273438,-0.2863311767578125
1.2499618530273438,1.2499618530273438,-0.3118896484375
1.2499618530273438,1.2499618530273438,-0.213165283203125
1.2499618530273438,1.2499618530273438,-0.1308441162109375
1.2499618530273438,1.2499618530273438,0.018310546875
1.2499618530273438,1.2499618530273438,-0.0209808349609375
1.2499618530273438,1.2499618530273438,0.0971221923828125
1.2499618530273438,1.2499618530273438,0.2392578125
1.2499618530273438,1.2499618530273438,0.219573974609375
1.2499618530273438,1.2499618530273438,0.1953887939453125
1.2499618530273438,1.2499618530273438,0.2973175048828125
1.2499618530273438,1.2499618530273438,0.26824951171875
1.2499618530273438,1.2499618530273438,0.2310943603515625
1.2476730346679688,1.1888504028320312,0.295867919921875
1.2499618530273438,1.2499618530273438,0.2801513671875
1.2499618530273438,1.2499618530273438,0.286865234375
1.2499618530273438,1.2499618530273438,0.3289794921875
1.2499618530273438,1.2499618530273438,0.307159423828125
1.2499618530273438,1.2499618530273438,0.1517486572265625
1.2499618530273438,1.2499618530273438,0.1696014404296875
1.2499618530273438,1.2499618530273438,0.048828125
1.2499618530273438,1.2499618530273438,-0.0330352783203125
1.2499618530273438,1.2499618530273438,-0.170440673828125
1.2499618530273438,1.2499618530273438,-0.132598876953125
1.2499618530273438,1.2499618530273438,-0.26214599609375
1.2499618530273438,1.2499618530273438,-0.39581298828125
1.2499618530273438,1.2499618530273438,-0.45257568359375
1.2499618530273438,1.2499618530273438,-0.4232025146484375
1.212005615234375,1.2499618530273438,-0.4778289794921875
1.2499618530273438,1.2499618530273438,-0.3045654296875
1.2499618530273438,1.2499618530273438,-0.3014373779296875
1.2499618530273438,1.2499618530273438,-0.2906036376953125
1.2499618530273438,1.2499618530273438,-0.24749755859375
1.2499618530273438,1.2499618530273438,-0.02227783203125
1.2499618530273438,1.2499618530273438,-0.0225830078125
1.2499618530273438,1.2499618530273438,-0.02471923828125
1.2499618530273438,1.2499618530273438,0.2037811279296875
1.2499618530273438,1.2499618530273438,0.18157958984375
1.2499618530273438,1.2499618530273438,0.2300262451171875
1.2499618530273438,1.2499618530273438,0.241546630859375
1.2499618530273438,1.2499618530273438,0.2812957763671875
1.2499618530273438,1.2499618530273438,0.2495574951171875
1.2499618530273438,1.2499618530273438,0.2154541015625
1.2353515625,1.189727783203125,0.324554443359375
1.2499618530273438,1.2499618530273438,0.411529541015625
1.2499618530273438,1.2499618530273438,0.30181884765625
1.2499618530273438,1.2499618530273438,0.4364776611328125
1.2499618530273438,1.2499618530273438,0.3566741943359375
1.2499618530273438,1.2499618530273438,0.3173065185546875
1.2499618530273438,1.2499618530273438,0.1660919189453125
1.2499618530273438,1.2499618530273438,0.186614990234375
1.2499618530273438,1.2499618530273438,-0.045013427734375
1.2499618530273438,1.2499618530273438,-0.16021728515625
1.2499618530273438,1.2499618530273438,-0.1763153076171875
1.2499618530273438,1.2499618530273438,-0.238189697265625
1.2499618530273438,1.2499618530273438,-0.398101806640625
1.2499618530273438,1.2499618530273438,-0.416717529296875
1.2499618530273438,1.2499618530273438,-0.4241943359375
1.182403564453125,1.2268447875976562,-0.449981689453125
1.2499618530273438,1.2499618530273438,-0.3466033935546875
1.2499618530273438,1.2499618530273438,-0.287322998046875
1.2499618530273438,1.2499618530273438,-0.2925872802734375
1.2499618530273438,1.2499618530273438,-0.1406097412109375
1.2499618530273438,1.2499618530273438,-0.10284423828125
1.2499618530273438,1.2499618530273438,-0.077362060546875
1.2499618530273438,1.2499618530273438,-0.0565338134765625
1.2499618530273438,1.2499618530273438,0.1195526123046875
1.2499618530273438,1.2499618530273438,0.2184295654296875
1.2499618530273438,1.2499618530273438,0.1671600341796875
1.2499618530273438,1.2499618530273438,0.23834228515625
1.2499618530273438,1.2499618530273438,0.2425384521484375
1.2499618530273438,1.2499618530273438,0.3273773193359375
1.2499618530273438,1.2499618530273438,0.265350341796875
1.2406158447265625,1.1665725708007812,0.263519287109375
1.2499618530273438,1.2499618530273438,0.308990478515625
1.2499618530273438,1.2499618530273438,0.30731201171875
1.2499618530273438,1.2499618530273438,0.449066162109375
1.2499618530273438,1.2499618530273438,0.3414154052734375
1.2499618530273438,1.2499618530273438,0.31005859375
1.2499618530273438,1.2499618530273438,0.0782012939453125
1.2499618530273438,1.2499618530273438,0.078125
1.2499618530273438,1.2499618530273438,-0.0283050537109375
1.2499618530273438,1.2499618530273438,-0.173187255859375
1.2499618530273438,1.2499618530273438,-0.1459503173828125
1.2499618530273438,1.2499618530273438,-0.3211212158203125
1.2499618530273438,1.2499618530273438,-0.4785919189453125
1.2499618530273438,1.2499618530273438,-0.444488525390625
1.2499618530273438,1.2499618530273438,-0.396575927734375
1.15570068359375,1.213226318359375,-0.4589080810546875
1.2499618530273438,1.2499618530273438,-0.371246337890625
1.2499618530273438,1.2499618530273438,-0.3012847900390625
1.2499618530273438,1.2499618530273438,-0.31646728515625
1.2499618530273438,1.2499618530273438,-0.2355194091796875
1.2499618530273438,1.2499618530273438,-0.039520263671875
1.2499618530273438,1.2499618530273438,-0.006561279296875
1.2499618530273438,1.2499618530273438,-0.0319671630859375
1.2499618530273438,1.2499618530273438,0.182952880859375
1.2499618530273438,1.2499618530273438,0.1805877685546875
1.2499618530273438,1.2499618530273438,0.229339599609375
1.2499618530273438,1.2499618530273438,0.20843505859375
1.2499618530273438,1.2499618530273438,0.2541351318359375
1.2499618530273438,1.2499618530273438,0.270233154296875
1.2499618530273438,1.2499618530273438,0.2203369140625
1.2299346923828125,1.1700439453125,0.3345489501953125
1.2499618530273438,1.2499618530273438,0.33477783203125
1.2499618530273438,1.2499618530273438,0.3054046630859375
1.2499618530273438,1.2499618530273438,0.42022705078125
1.2499618530273438,1.2499618530273438,0.475006103515625
1.2499618530273438,1.2499618530273438,0.2127838134765625
1.2499618530273438,1.2499618530273438,0.216064453125
1.2499618530273438,1.2499618530273438,0.1352691650390625
1.2499618530273438,1.2499618530273438,-0.0699615478515625
1.2499618530273438,1.2499618530273438,-0.17120361328125
1.2499618530273438,1.2499618530273438,-0.2288055419921875
1.2499618530273438,1.2499618530273438,-0.25177001953125
1.2499618530273438,1.2499618530273438,-0.4026031494140625
1.2499618530273438,1.2499618530273438,-0.47515869140625
1.2499618530273438,1.2499618530273438,-0.40496826171875
1.1336898803710938,1.1902999877929688,-0.4354095458984375
1.2499618530273438,1.2499618530273438,-0.3636932373046875
1.2499618530273438,1.2499618530273438,-0.2880859375
1.2499618530273438,1.2499618530273438,-0.320587158203125
1.2499618530273438,1.2499618530273438,-0.169677734375
1.2499618530273438,1.2499618530273438,-0.140533447265625
1.2499618530273438,1.2499618530273438,-0.0327301025390625
1.2499618530273438,1.2499618530273438,0.0736236572265625
1.2499618530273438,1.2499618530273438,0.1261138916015625
1.2499618530273438,1.2499618530273438,0.2443695068359375
1.2499618530273438,1.2499618530273438,0.173492431640625
1.2499618530273438,1.2499618530273438,0.1566314697265625
1.2499618530273438,1.2499618530273438,0.2799224853515625
1.2499618530273438,1.2499618530273438,0.2304840087890625
1.2499618530273438,1.2499618530273438,0.1849365234375
1.2319564819335938,1.1649703979492188,0.298614501953125
1.2499618530273438,1.2499618530273438,0.3278350830078125
1.2499618530273438,1.2499618530273438,0.3330230712890625
1.2499618530273438,1.2499618530273438,0.4087066650390625
1.2499618530273438,1.2499618530273438,0.4306793212890625
1.2499618530273438,1.2499618530273438,0.2388763427734375
1.2499618530273438,1.2499618530273438,0.15411376953125
1.2499618530273438,1.2499618530273438,0.16265869140625
1.2499618530273438,1.2499618530273438,-0.0928497314453125
1.2499618530273438,1.2499618530273438,-0.069580078125
1.2499618530273438,1.2499618530273438,-0.215606689453125
1.2499618530273438,1.2499618530273438,-0.2620697021484375
1.2499618530273438,1.2499618530273438,-0.4528045654296875
1.2499618530273438,1.2499618530273438,-0.4622650146484375
1.2499618530273438,1.2499618530273438,-0.433502197265625
1.1203765869140625,1.1786270141601562,-0.46722412109375
1.2499618530273438,1.2499618530273438,-0.3650665283203125
1.2499618530273438,1.2499618530273438,-0.373077392578125
1.2499618530273438,1.2499618530273438,-0.3082275390625
1.2499618530273438,1.2499618530273438,-0.2142333984375
1.2499618530273438,1.2499618530273438,-0.06561279296875
1.2499618530273438,1.2499618530273438,-0.000457763671875
1.2499618530273438,1.2499618530273438,-0.0124359130859375
1.2499618530273438,1.2499618530273438,0.177154541015625
1.2499618530273438,1.2499618530273438,0.2585601806640625
1.2499618530273438,1.2499618530273438,0.21942138671875
1.2499618530273438,1.2499618530273438,0.335845947265625
1.2499618530273438,1.2499618530273438,0.263214111328125
1.2499618530273438,1.2499618530273438,0.205841064453125
1.2499618530273438,1.2499618530273438,0.2109527587890625
1.1930465698242188,1.1097335815429688,0.3076934814453125
1.2499618530273438,1.2499618530273438,0.2707672119140625
1.2499618530273438,1.2499618530273438,0.3470611572265625
1.2499618530273438,1.2499618530273438,0.417633056640625
1.2499618530273438,1.2499618530273438,0.341949462890625
1.2499618530273438,1.2499618530273438,0.3299713134765625
1.2499618530273438,1.2499618530273438,0.1712799072265625
1.2499618530273438,1.2499618530273438,0.0771331787109375
1.2499618530273438,1.2499618530273438,-0.0702667236328125
1.2499618530273438,1.2499618530273438,-0.0624847412109375
1.2499618530273438,1.2499618530273438,-0.2355194091796875
1.2499618530273438,1.2499618530273438,-0.3118896484375
1.2499618530273438,1.2499618530273438,-0.4166412353515625
1.2499618530273438,1.2499618530273438,-0.4400634765625
1.2499618530273438,1.2499618530273438,-0.4343414306640625
1.0963821411132812,1.1578369140625,-0.4610443115234375
1.2499618530273438,1.2499618530273438,-0.350341796875
1.2499618530273438,1.2499618530273438,-0.251617431640625
1.2499618530273438,1.2499618530273438,-0.3264617919921875
1.2499618530273438,1.2499618530273438,-0.222625732421875
1.2499618530273438,1.2499618530273438,-0.0197601318359375
1.2499618530273438,1.2499618530273438,-0.024261474609375
1.2499618530273438,1.2499618530273438,-0.037078857421875
1.2499618530273438,1.2499618530273438,0.1615142822265625
1.2499618530273438,1.2499618530273438,0.169219970703125
1.2499618530273438,1.2499618530273438,0.202178955078125
1.2499618530273438,1.2499618530273438,0.222015380859375
1.2499618530273438,1.2499618530273438,0.2680206298828125
1.2499618530273438,1.2499618530273438,0.2555084228515625
1.2499618530273438,1.2499618530273438,0.24627685546875
1.1603164672851562,1.1005020141601562,0.306396484375
1.2499618530273438,1.2499618530273438,0.3681182861328125
1.2499618530273438,1.2499618530273438,0.4111480712890625
1.2499618530273438,1.2499618530273438,0.4053497314453125
1.2499618530273438,1.2499618530273438,0.36651611328125
1.2499618530273438,1.2499618530273438,0.2228546142578125
1.2499618530273438,1.2499618530273438,0.1959991455078125
1.2499618530273438,1.2499618530273438,0.1569366455078125
1.2499618530273438,1.2499618530273438,-0.041656494140625
1.2499618530273438,1.2499618530273438,-0.1007843017578125
1.2499618530273438,1.2499618530273438,-0.218505859375
1.2499618530273438,1.2499618530273438,-0.264739990234375
1.2499618530273438,1.2499618530273438,-0.4006195068359375
1.2499618530273438,1.2499618530273438,-0.47210693359375
1.2499618530273438,1.2499618530273438,-0.4390716552734375
1.0969161987304688,1.1497116088867188,-0.49072265625
1.2499618530273438,1.2499618530273438,-0.3127288818359375
1.2499618530273438,1.2499618530273438,-0.2581024169921875
1.2499618530273438,1.2499618530273438,-0.3208160400390625
1.2499618530273438,1.2499618530273438,-0.2570343017578125
1.2499618530273438,1.2499618530273438,-0.130157470703125
1.2499618530273438,1.2499618530273438,0.03021240234375
1.2499618530273438,1.2499618530273438,-0.041961669921875
1.2499618530273438,1.2499618530273438,0.183563232421875
1.2499618530273438,1.2499618530273438,0.1042938232421875
1.2499618530273438,1.2499618530273438,0.2205657958984375
1.2499618530273438,1.2499618530273438,0.2042388916015625
1.2499618530273438,1.2499618530273438,0.3141021728515625
1.2499618530273438,1.2499618530273438,0.2899169921875
1.2499618530273438,1.2499618530273438,0.209197998046875
1.1386489868164062,1.0771560668945312,0.311431884765625
1.2499618530273438,1.2499618530273438,0.2942657470703125
1.2499618530273438,1.2499618530273438,0.29052734375
1.2499618530273438,1.2499618530273438,0.351104736328125
1.2499618530273438,1.2499618530273438,0.3450775146484375
1.2499618530273438,1.2499618530273438,0.206146240234375
1.2499618530273438,1.2499618530273438,0.17822265625
1.2499618530273438,1.2499618530273438,0.124359130859375
1.2499618530273438,1.2499618530273438,-0.0351715087890625
1.2499618530273438,1.2499618530273438,-0.19317626953125
1.2499618530273438,1.2499618530273438,-0.163116455078125
1.2499618530273438,1.2499618530273438,-0.2559661865234375
1.2499618530273438,1.2499618530273438,-0.4419708251953125
1.2499618530273438,1.2499618530273438,-0.4177093505859375
1.2499618530273438,1.2499618530273438,-0.4129791259765625
1.0786819458007812,1.14410400390625,-0.501861572265625
1.2499618530273438,1.2499618530273438,-0.368499755859375
1.2499618530273438,1.2499618530273438,-0.269012451171875
1.2499618530273438,1.2499618530273438,-0.317840576171875
1.2499618530273438,1.2499618530273438,-0.2374267578125
1.2499618530273438,1.2499618530273438,-0.0957489013671875
1.2499618530273438,1.2499618530273438,-0.1042938232421875
1.2499618530273438,1.2499618530273438,-0.029296875
1.2499618530273438,1.2499618530273438,0.219879150390625
1.2499618530273438,1.2499618530273438,0.1959228515625
1.2499618530273438,1.2499618530273438,0.2581024169921875
1.2499618530273438,1.2499618530273438,0.181121826171875
1.2499618530273438,1.2499618530273438,0.2309417724609375
1.2499618530273438,1.2499618530273438,0.2349853515625
1.2499618530273438,1.2499618530273438,0.2263641357421875
1.0886764526367188,1.0490036010742188,0.29876708984375
1.2499618530273438,1.2499618530273438,0.2849578857421875
1.2499618530273438,1.2499618530273438,0.331268310546875
1.2499618530273438,1.2499618530273438,0.344696044921875
1.2499618530273438,1.2499618530273438,0.393829345703125
1.2499618530273438,1.2499618530273438,0.2252197265625
1.2499618530273438,1.2499618530273438,0.179290771484375
1.2499618530273438,1.2499618530273438,0.0675201416015625
1.2499618530273438,1.2499618530273438,-0.0855255126953125
1.2499618530273438,1.2499618530273438,-0.141754150390625
1.2499618530273438,1.2499618530273438,-0.167388916015625
1.2499618530273438,1.2499618530273438,-0.2496337890625
1.2499618530273438,1.2499618530273438,-0.3887939453125
1.2499618530273438,1.2499618530273438,-0.5120086669921875
1.2499618530273438,1.2499618530273438,-0.4062652587890625
1.0689544677734375,1.1272430419921875,-0.426025390625
1.2499618530273438,1.2499618530273438,-0.421295166015625
1.2499618530273438,1.2499618530273438,-0.3078460693359375
1.2499618530273438,1.2499618530273438,-0.29266357421875
1.2499618530273438,1.2499618530273438,-0.2188873291015625
1.2499618530273438,1.2499618530273438,-0.142364501953125
1.2499618530273438,1.2499618530273438,-0.0086212158203125
1.2499618530273438,1.2499618530273438,0.003814697265625
1.2499618530273438,1.2499618530273438,0.1725006103515625
1.2499618530273438,1.2499618530273438,0.2552032470703125
1.2499618530273438,1.2499618530273438,0.1486968994140625
1.2499618530273438,1.2499618530273438,0.224151611328125
1.2499618530273438,1.2499618530273438,0.3328704833984375
1.2499618530273438,1.2499618530273438,0.25634765625
1.2499618530273438,1.2499618530273438,0.240936279296875
1.0915374755859375,1.0247421264648438,0.3342437744140625
1.2499618530273438,1.2499618530273438,0.3008270263671875
1.2499618530273438,1.2499618530273438,0.342254638671875
1.2499618530273438,1.2499618530273438,0.352783203125
1.2499618530273438,1.2499618530273438,0.34423828125
1.2499618530273438,1.2499618530273438,0.260009765625
1.2499618530273438,1.2499618530273438,0.2196502685546875
1.2499618530273438,1.2499618530273438,0.1392364501953125
1.2499618530273438,1.2499618530273438,-0.0482177734375
1.2499618530273438,1.2499618530273438,-0.181884765625
1.2499618530273438,1.2499618530273438,-0.24139404296875
1.2499618530273438,1.2499618530273438,-0.311737060546875
1.2499618530273438,1.2499618530273438,-0.44036865234375
1.2499618530273438,1.2499618530273438,-0.467681884765625
1.2499618530273438,1.2499618530273438,-0.4235076904296875
1.0448455810546875,1.0933303833007812,-0.4688262939453125
1.2499618530273438,1.2499618530273438,-0.337371826171875
1.2499618530273438,1.2499618530273438,-0.2883148193359375
1.2499618530273438,1.2499618530273438,-0.312347412109375
1.2499618530273438,1.2499618530273438,-0.2065277099609375
1.2499618530273438,1.2499618530273438,-0.0972747802734375
1.2499618530273438,1.2499618530273438,-0.0629425048828125
1.2499618530273438,1.2499618530273438,-0.040435791015625
1.2499618530273438,1.2499618530273438,0.17547607421875
1.2499618530273438,1.2499618530273438,0.2048492431640625
1.2499618530273438,1.2499618530273438,0.186614990234375
1.2499618530273438,1.2499618530273438,0.2262115478515625
1.2499618530273438,1.2499618530273438,0.31646728515625
1.2499618530273438,1.2499618530273438,0.2691650390625
1.2499618530273438,1.2499618530273438,0.2188873291015625
1.0857772827148438,0.9990310668945312,0.2883148193359375
1.2499618530273438,1.2499618530273438,0.28778076171875
1.2499618530273438,1.2499618530273438,0.29510498046875
1.2499618530273438,1.2499618530273438,0.4174041748046875
1.2499618530273438,1.2499618530273438,0.3878021240234375
1.2499618530273438,1.2499618530273438,0.19744873046875
1.2499618530273438,1.2499618530273438,0.1747894287109375
1.2499618530273438,1.2499618530273438,0.1178741455078125
1.2499618530273438,1.2499618530273438,-0.1349639892578125
1.2499618530273438,1.2499618530273438,-0.206451416015625
1.2499618530273438,1.2499618530273438,-0.172576904296875
1.2499618530273438,1.2499618530273438,-0.28045654296875
1.2499618530273438,1.2499618530273438,-0.409393310546875
1.2499618530273438,1.2499618530273438,-0.4537200927734375
1.2499618530273438,1.2499618530273438,-0.4338836669921875
1.02447509765625,1.0739898681640625,-0.447235107421875
1.2499618530273438,1.2499618530273438,-0.373382568359375
1.2499618530273438,1.2499618530273438,-0.2623748779296875
1.2499618530273438,1.2499618530273438,-0.3090667724609375
1.2499618530273438,1.2499618530273438,-0.164337158203125
1.2499618530273438,1.2499618530273438,-0.0298309326171875
1.2499618530273438,1.2499618530273438,-0.0678253173828125
1.2499618530273438,1.2499618530273438,0.009918212890625
1.2499618530273438,1.2499618530273438,0.2219390869140625
1.2499618530273438,1.2499618530273438,0.2093505859375
1.2499618530273438,1.2499618530273438,0.1667022705078125
1.2499618530273438,1.2499618530273438,0.261077880859375
1.2499618530273438,1.2499618530273438,0.3212738037109375
1.2499618530273438,1.2499618530273438,0.389404296875
1.2499618530273438,1.2499618530273438,0.1993560791015625
1.0535812377929688,0.9847640991210938,0.3136444091796875
1.2499618530273438,1.2499618530273438,0.351409912109375
1.2499618530273438,1.2499618530273438,0.3252410888671875
1.2499618530273438,1.2499618530273438,0.421600341796875
1.2499618530273438,1.2499618530273438,0.34942626953125
1.2499618530273438,1.2499618530273438,0.2254486083984375
1.2499618530273438,1.2499618530273438,0.13824462890625
1.2499618530273438,1.2499618530273438,0.141754150390625
1.2499618530273438,1.2499618530273438,-0.060577392578125
1.2499618530273438,1.2499618530273438,-0.1123809814453125
1.2499618530273438,1.2499618530273438,-0.134735107421875
1.2499618530273438,1.2499618530273438,-0.2899169921875
1.2499618530273438,1.2499618530273438,-0.3528594970703125
1.2499618530273438,1.2499618530273438,-0.413665771484375
1.2499618530273438,1.2499618530273438,-0.4364013671875
0.9967803955078125,1.0566329956054688,-0.523529052734375
1.2499618530273438,1.2499618530273438,-0.4034423828125
1.2499618530273438,1.2499618530273438,-0.2477264404296875
1.2499618530273438,1.2499618530273438,-0.3350067138671875
1.2499618530273438,1.2499618530273438,-0.17791748046875
1.2499618530273438,1.2499618530273438,-0.0783538818359375
1.2499618530273438,1.2499618530273438,-0.015716552734375
1.2499618530273438,1.2499618530273438,-0.0550079345703125
1.2499618530273438,1.2499618530273438,0.22430419921875
1.2499618530273438,1.2499618530273438,0.1995086669921875
1.2499618530273438,1.2499618530273438,0.1903533935546875
1.2499618530273438,1.2499618530273438,0.2054595947265625
1.2499618530273438,1.2499618530273438,0.264434814453125
1.2499618530273438,1.2499618530273438,0.2700042724609375
1.2499618530273438,1.2499618530273438,0.26336669921875
1.0328292846679688,0.9764862060546875,0.4451751708984375
1.2499618530273438,1.2499618530273438,0.2352142333984375
1.2499618530273438,1.2499618530273438,0.3261566162109375
1.2499618530273438,1.2499618530273438,0.38177490234375
1.2499618530273438,1.2499618530273438,0.3621673583984375
1.2499618530273438,1.2499618530273438,0.3232574462890625
1.2499618530273438,1.2499618530273438,0.2436065673828125
1.2499618530273438,1.2499618530273438,0.12664794921875
1.2499618530273438,1.2499618530273438,-0.1576995849609375
1.2499618530273438,1.2499618530273438,-0.13214111328125
1.2499618530273438,1.2499618530273438,-0.210723876953125
1.2499618530273438,1.2499618530273438,-0.294342041015625
1.2499618530273438,1.2499618530273438,-0.4132080078125
1.2499618530273438,1.2499618530273438,-0.4361724853515625
1.2499618530273438,1.2499618530273438,-0.4116058349609375
0.9717178344726562,1.02294921875,-0.4570770263671875
1.2499618530273438,1.2499618530273438,-0.33660888671875
1.2499618530273438,1.2499618530273438,-0.297393798828125
1.2499618530273438,1.2499618530273438,-0.2989959716796875
1.2499618530273438,1.2499618530273438,-0.2004241943359375
1.2499618530273438,1.2499618530273438,-0.025787353515625
1.2499618530273438,1.2499618530273438,-0.0566864013671875
1.2499618530273438,1.2499618530273438,-0.0032806396484375
1.2499618530273438,1.2499618530273438,0.1819610595703125
1.2499618530273438,1.2499618530273438,0.186309814453125
1.2499618530273438,1.2499618530273438,0.1638031005859375
1.2499618530273438,1.2499618530273438,0.25848388671875
1.2499618530273438,1.2499618530273438,0.326385498046875
1.2499618530273438,1.2499618530273438,0.1926422119140625
1.2499618530273438,1.2499618530273438,0.2655029296875
1.0326385498046875,0.9686660766601562,0.2606964111328125
1.2499618530273438,1.2499618530273438,0.290069580078125
1.2499618530273438,1.2499618530273438,0.3031158447265625
1.2499618530273438,1.2499618530273438,0.3618621826171875
1.2499618530273438,1.2499618530273438,0.3003692626953125
1.2499618530273438,1.2499618530273438,0.2391815185546875
1.2499618530273438,1.2499618530273438,0.1593017578125
1.2499618530273438,1.2499618530273438,0.1338958740234375
1.2499618530273438,1.2499618530273438,-0.0518035888671875
1.2499618530273438,1.2499618530273438,-0.139923095703125
1.2499618530273438,1.2499618530273438,-0.166168212890625
1.2499618530273438,1.2499618530273438,-0.31494140625
1.2499618530273438,1.2499618530273438,-0.4611968994140625
1.2499618530273438,1.2499618530273438,-0.47943115234375
1.2499618530273438,1.2499618530273438,-0.3993988037109375
0.9605789184570312,1.0007858276367188,-0.4723358154296875
1.2499618530273438,1.2499618530273438,-0.3394317626953125
1.2499618530273438,1.2499618530273438,-0.32623291015625
1.2499618530273438,1.2499618530273438,-0.30120849609375
1.2499618530273438,1.2499618530273438,-0.220489501953125
1.2499618530273438,1.2499618530273438,-0.0079345703125
1.2499618530273438,1.2499618530273438,-0.0017547607421875
1.2499618530273438,1.2499618530273438,-0.0189208984375
1.2499618530273438,1.2499618530273438,0.22979736328125
1.2499618530273438,1.2499618530273438,0.2364349365234375
1.2499618530273438,1.2499618530273438,0.1827239990234375
1.2499618530273438,1.2499618530273438,0.226593017578125
1.2499618530273438,1.2499618530273438,0.2497100830078125
1.2499618530273438,1.2499618530273438,0.2845001220703125
1.2499618530273438,1.2499618530273438,0.2252197265625
1.0186767578125,0.9702301025390625,0.299835205078125
1.2499618530273438,1.2499618530273438,0.284271240234375
1.2499618530273438,1.2499618530273438,0.31158447265625
1.2499618530273438,1.2499618530273438,0.395965576171875
1.2499618530273438,1.2499618530273438,0.408477783203125
1.2499618530273438,1.2499618530273438,0.2392578125
1.2499618530273438,1.2499618530273438,0.251617431640625
1.2499618530273438,1.2499618530273438,0.2249908447265625
1.2499618530273438,1.2499618530273438,-0.1026153564453125
1.2499618530273438,1.2499618530273438,-0.1274871826171875
1.2499618530273438,1.2499618530273438,-0.167694091796875
1.2499618530273438,1.2499618530273438,-0.3806304931640625
1.2499618530273438,1.2499618530273438,-0.3900909423828125
1.2499618530273438,1.2499618530273438,-0.471038818359375
1.2499618530273438,1.2499618530273438,-0.417938232421875
0.9376144409179688,0.991668701171875,-0.4662322998046875
1.2499618530273438,1.2499618530273438,-0.333404541015625
1.2499618530273438,1.2499618530273438,-0.2762603759765625
1.2499618530273438,1.2499618530273438,-0.302734375
1.2499618530273438,1.2499618530273438,-0.19561767578125
1.2499618530273438,1.2499618530273438,-0.082244873046875
1.2499618530273438,1.2499618530273438,0.0052642822265625
1.2499618530273438,1.2499618530273438,-0.0091552734375
1.2499618530273438,1.2499618530273438,0.2588653564453125
1.2499618530273438,1.2499618530273438,0.16082763671875
1.2499618530273438,1.2499618530273438,0.147247314453125
1.2499618530273438,1.2499618530273438,0.2860260009765625
1.2499618530273438,1.2499618530273438,0.277252197265625
1.2499618530273438,1.2499618530273438,0.2817535400390625
1.2499618530273438,1.2499618530273438,0.2117156982421875
1.0106658935546875,0.9537124633789062,0.2960205078125
1.2499618530273438,1.2499618530273438,0.26397705078125
1.2499618530273438,1.2499618530273438,0.3375244140625
1.2499618530273438,1.2499618530273438,0.4170989990234375
1.2499618530273438,1.2499618530273438,0.2938079833984375
1.2499618530273438,1.2499618530273438,0.17822265625
1.2499618530273438,1.2499618530273438,0.1801300048828125
1.2499618530273438,1.2499618530273438,0.131683349609375
1.2499618530273438,1.2499618530273438,-0.0722503662109375
1.2499618530273438,1.2499618530273438,-0.1107025146484375
1.2499618530273438,1.2499618530273438,-0.1678466796875
1.2499618530273438,1.2499618530273438,-0.2801513671875
1.2499618530273438,1.2499618530273438,-0.3802490234375
1.2499618530273438,1.2499618530273438,-0.4730224609375
1.2499618530273438,1.2499618530273438,-0.425872802734375
0.9358596801757812,0.9866714477539062,-0.451812744140625
1.2499618530273438,1.2499618530273438,-0.347137451171875
1.2499618530273438,1.2499618530273438,-0.2400970458984375
1.2499618530273438,1.2499618530273438,-0.3324127197265625
1.2499618530273438,1.2499618530273438,-0.2304840087890625
1.2499618530273438,1.2499618530273438,-0.0125885009765625
1.2499618530273438,1.2499618530273438,-0.0978851318359375
1.2499618530273438,1.2499618530273438,0.0732421875
1.2499618530273438,1.2499618530273438,0.1750946044921875
1.2499618530273438,1.2499618530273438,0.2291107177734375
1.2499618530273438,1.2499618530273438,0.1876068115234375
1.2499618530273438,1.2499618530273438,0.2034759521484375
1.2499618530273438,1.2499618530273438,0.2310943603515625
1.2499618530273438,1.2499618530273438,0.2398681640625
1.2499618530273438,1.2499618530273438,0.2079010009765625
0.9959793090820312,0.9341812133789062,0.319366455078125
1.2499618530273438,1.2499618530273438,0.294952392578125
1.2499618530273438,1.2499618530273438,0.3760528564453125
1.2499618530273438,1.2499618530273438,0.4312896728515625
1.2499618530273438,1.2499618530273438,0.3772735595703125
1.2499618530273438,1.2499618530273438,0.18768310546875
1.2499618530273438,1.2499618530273438,0.2227020263671875
1.2499618530273438,1.2499618530273438,0.0750732421875
1.2499618530273438,1.2499618530273438,-0.0765228271484375
1.2499618530273438,1.2499618530273438,-0.1844024658203125
1.2499618530273438,1.2499618530273438,-0.1512908935546875
1.2499618530273438,1.2499618530273438,-0.3325653076171875
1.2499618530273438,1.2499618530273438,-0.4319000244140625
1.2499618530273438,1.2499618530273438,-0.4138946533203125
1.2499618530273438,1.2499618530273438,-0.406646728515625
0.9270477294921875,0.9808349609375,-0.440521240234375
1.2499618530273438,1.2499618530273438,-0.382080078125
1.2499618530273438,1.2499618530273438,-0.25238037109375
1.2499618530273438,1.2499618530273438,-0.3313446044921875
1.2499618530273438,1.2499618530273438,-0.1507568359375
1.2499618530273438,1.2499618530273438,-0.009307861328125
1.2499618530273438,1.2499618530273438,-0.08026123046875
1.2499618530273438,1.2499618530273438,0.018768310546875
1.2499618530273438,1.2499618530273438,0.281829833984375
1.2499618530273438,1.2499618530273438,0.2618408203125
1.2499618530273438,1.2499618530273438,0.1471710205078125
1.2499618530273438,1.2499618530273438,0.306854248046875
1.2499618530273438,1.2499618530273438,0.3089141845703125
1.2499618530273438,1.2499618530273438,0.26031494140625
1.2499618530273438,1.2499618530273438,0.2100372314453125
0.9773635864257812,0.92864990234375,0.3531646728515625
1.2499618530273438,1.2499618530273438,0.3475189208984375
1.2499618530273438,1.2499618530273438,0.3414154052734375
1.2499618530273438,1.2499618530273438,0.414886474609375
1.2499618530273438,1.2499618530273438,0.278167724609375
1.2499618530273438,1.2499618530273438,0.1386260986328125
1.2499618530273438,1.2499618530273438,0.1784515380859375
1.2499618530273438,1.2499618530273438,0.105133056640625
1.2499618530273438,1.2499618530273438,-0.069580078125
1.2499618530273438,1.2499618530273438,-0.1715850830078125
1.2499618530273438,1.2499618530273438,-0.227203369140625
1.2499618530273438,1.2499618530273438,-0.294952392578125
1.2499618530273438,1.2499618530273438,-0.453338623046875
1.2499618530273438,1.2499618530273438,-0.4856109619140625
1.2499618530273438,1.2499618530273438,-0.4108428955078125
0.9093856811523438,0.9850692749023438,-0.4552459716796875
1.2499618530273438,1.2499618530273438,-0.2993011474609375
1.2499618530273438,1.2499618530273438,-0.2883148193359375
1.2499618530273438,1.2499618530273438,-0.2921295166015625
1.2499618530273438,1.2499618530273438,-0.239410400390625
1.2499618530273438,1.2499618530273438,-0.02716064453125
1.2499618530273438,1.2499618530273438,-0.0295257568359375
1.2499618530273438,1.2499618530273438,0.005340576171875
1.2499618530273438,1.2499618530273438,0.2037811279296875
1.2499618530273438,1.2499618530273438,0.232086181640625
1.2499618530273438,1.2499618530273438,0.2220916748046875
1.2499618530273438,1.2499618530273438,0.22796630859375
1.2499618530273438,1.2499618530273438,0.29144287109375
1.2499618530273438,1.2499618530273438,0.301361083984375
1.2499618530273438,1.2499618530273438,0.2584075927734375
0.9631729125976562,0.904693603515625,0.3258514404296875
1.2499618530273438,1.2499618530273438,0.27557373046875
1.2499618530273438,1.2499618530273438,0.3728485107421875
1.2499618530273438,1.2499618530273438,0.40496826171875
1.2499618530273438,1.2499618530273438,0.27618408203125
1.2499618530273438,1.2499618530273438,0.1839447021484375
1.2499618530273438,1.2499618530273438,0.116424560546875
1.2499618530273438,1.2499618530273438,0.116729736328125
1.2499618530273438,1.2499618530273438,-0.142364501953125
1.2499618530273438,1.2499618530273438,-0.1296234130859375
1.2499618530273438,1.2499618530273438,-0.1735687255859375
1.2499618530273438,1.2499618530273438,-0.3430938720703125
1.2499618530273438,1.2499618530273438,-0.394287109375
1.2499618530273438,1.2499618530273438,-0.4679107666015625
1.2499618530273438,1.2499618530273438,-0.45654296875
0.94573974609375,0.975341796875,-0.4638671875
1.2499618530273438,1.2499618530273438,-0.3578948974609375
1.2499618530273438,1.2499618530273438,-0.25787353515625
1.2499618530273438,1.2499618530273438,-0.3376007080078125
1.2499618530273438,1.2499618530273438,-0.126800537109375
1.2499618530273438,1.2499618530273438,-0.0238037109375
1.2499618530273438,1.2499618530273438,-0.0327301025390625
1.2499618530273438,1.2499618530273438,0.1025390625
1.2499618530273438,1.2499618530273438,0.259246826171875
1.2499618530273438,1.2499618530273438,0.2326202392578125
1.2499618530273438,1.2499618530273438,0.1911163330078125
1.2499618530273438,1.2499618530273438,0.2179718017578125
1.2499618530273438,1.2499618530273438,0.2782440185546875
1.2499618530273438,1.2499618530273438,0.3066253662109375
1.2499618530273438,1.2499618530273438,0.226287841796875
0.962371826171875,0.8969497680664062,0.3192138671875
1.2499618530273438,1.2499618530273438,0.29541015625
1.2499618530273438,1.2499618530273438,0.359954833984375
1.2499618530273438,1.2499618530273438,0.34271240234375
1.2499618530273438,1.2499618530273438,0.3485870361328125
1.2499618530273438,1.2499618530273438,0.179443359375
1.2499618530273438,1.2499618530273438,0.1691436767578125
1.2499618530273438,1.2499618530273438,0.0975799560546875
1.2499618530273438,1.2499618530273438,-0.128173828125
1.2499618530273438,1.2499618530273438,-0.1361846923828125
1.2499618530273438,1.2499618530273438,-0.1287078857421875
1.2499618530273438,1.2499618530273438,-0.369415283203125
1.2499618530273438,1.2499618530273438,-0.4206085205078125
1.2499618530273438,1.2499618530273438,-0.4400634765625
1.2499618530273438,1.2499618530273438,-0.4209136962890625
0.9371185302734375,0.9852218627929688,-0.480804443359375
1.2499618530273438,1.2499618530273438,-0.3276824951171875
1.2499618530273438,1.2499618530273438,-0.2899169921875
1.2499618530273438,1.2499618530273438,-0.28076171875
1.2499618530273438,1.2499618530273438,-0.2152252197265625
1.2499618530273438,1.2499618530273438,0.0249481201171875
1.2499618530273438,1.2499618530273438,-0.05462646484375
1.2499618530273438,1.2499618530273438,-0.02716064453125
1.2499618530273438,1.2499618530273438,0.22430419921875
1.2499618530273438,1.2499618530273438,0.2503204345703125
1.2499618530273438,1.2499618530273438,0.141754150390625
1.2499618530273438,1.2499618530273438,0.274658203125
1.2499618530273438,1.2499618530273438,0.2373504638671875
1.2499618530273438,1.2499618530273438,0.2150726318359375
1.2499618530273438,1.2499618530273438,0.25177001953125
0.9537506103515625,0.9003067016601562,0.2878570556640625
1.2499618530273438,1.2499618530273438,0.3176116943359375
1.2499618530273438,1.2499618530273438,0.3789520263671875
1.2499618530273438,1.2499618530273438,0.3672027587890625
1.2499618530273438,1.2499618530273438,0.2225494384765625
1.2499618530273438,1.2499618530273438,0.142059326171875
1.2499618530273438,1.2499618530273438,0.1900482177734375
1.2499618530273438,1.2499618530273438,0.06744384765625
1.2499618530273438,1.2499618530273438,-0.0701904296875
1.2499618530273438,1.2499618530273438,-0.1618194580078125
1.2499618530273438,1.2499618530273438,-0.1556396484375
1.2499618530273438,1.2499618530273438,-0.359649658203125
1.2499618530273438,1.2499618530273438,-0.44158935546875
1.2499618530273438,1.2499618530273438,-0.4909515380859375
1.2499618530273438,1.2499618530273438,-0.4399871826171875
0.9362411499023438,0.9923171997070312,-0.5181121826171875
1.2499618530273438,1.2499618530273438,-0.3130340576171875
1.2499618530273438,1.2499618530273438,-0.2725982666015625
1.2499618530273438,1.2499618530273438,-0.354461669921875
1.2499618530273438,1.2499618530273438,-0.154571533203125
1.2499618530273438,1.2499618530273438,-0.03173828125
1.2499618530273438,1.2499618530273438,0.0054168701171875
1.2499618530273438,1.2499618530273438,-0.00732421875
1.2499618530273438,1.2499618530273438,0.2227783203125
1.2499618530273438,1.2499618530273438,0.21728515625
1.2499618530273438,1.2499618530273438,0.1496124267578125
1.2499618530273438,1.2499618530273438,0.2835845947265625
1.2499618530273438,1.2499618530273438,0.19744873046875
1.2499618530273438,1.2499618530273438,0.2558135986328125
1.2499618530273438,1.2499618530273438,0.2292633056640625
0.927886962890625,0.9011459350585938,0.295562744140625
1.2499618530273438,1.2499618530273438,0.2799224853515625
1.2499618530273438,1.2499618530273438,0.3177642822265625
1.2499618530273438,1.2499618530273438,0.3887176513671875
1.2499618530273438,1.2499618530273438,0.3033447265625
1.2499618530273438,1.2499618530273438,0.1963043212890625
1.2499618530273438,1.2499618530273438,0.14251708984375
1.2499618530273438,1.2499618530273438,0.108642578125
1.2499618530273438,1.2499618530273438,-0.115966796875
1.2499618530273438,1.2499618530273438,-0.1725006103515625
1.2499618530273438,1.2499618530273438,-0.1316070556640625
1.2499618530273438,1.2499618530273438,-0.3728485107421875
1.2499618530273438,1.2499618530273438,-0.4180145263671875
1.2499618530273438,1.2499618530273438,-0.4531097412109375
1.2499618530273438,1.2499618530273438,-0.416259765625
0.9351348876953125,0.976715087890625,-0.458221435546875
1.2499618530273438,1.2499618530273438,-0.215606689453125
1.2499618530273438,1.2499618530273438,-0.237274169921875
1.2499618530273438,1.2499618530273438,-0.283050537109375
1.2499618530273438,1.2499618530273438,-0.161590576171875
1.2499618530273438,1.2499618530273438,0.008087158203125
1.2499618530273438,1.2499618530273438,-0.0603485107421875
1.2499618530273438,1.2499618530273438,0.02197265625
1.2499618530273438,1.2499618530273438,0.204010009765625
1.2499618530273438,1.2499618530273438,0.2182769775390625
1.2499618530273438,1.2499618530273438,0.2062225341796875
1.2499618530273438,1.2499618530273438,0.1972198486328125
1.2499618530273438,1.2499618530273438,0.212249755859375
1.2499618530273438,1.2499618530273438,0.248260498046875
1.2499618530273438,1.2499618530273438,0.242919921875
0.9474563598632812,0.8931350708007812,0.2496337890625
1.2499618530273438,1.2499618530273438,0.240478515625
1.2499618530273438,1.2499618530273438,0.3511810302734375
1.2499618530273438,1.2499618530273438,0.33935546875
1.2499618530273438,1.2499618530273438,0.352325439453125
1.2499618530273438,1.2499618530273438,0.1659393310546875
1.2499618530273438,1.2499618530273438,0.11810302734375
1.2499618530273438,1.2499618530273438,0.0547027587890625
1.2499618530273438,1.2499618530273438,-0.131378173828125
1.2499618530273438,1.2499618530273438,-0.140838623046875
1.2499618530273438,1.2499618530273438,-0.1889801025390625
1.2499618530273438,1.2499618530273438,-0.2930450439453125
1.2499618530273438,1.2499618530273438,-0.3911590576171875
1.2499618530273438,1.2499618530273438,-0.44921875
1.2499618530273438,1.2499618530273438,-0.43243408203125
0.9253692626953125,0.9708023071289062,-0.45806884765625
1.2499618530273438,1.2499618530273438,-0.382080078125
1.2499618530273438,1.2499618530273438,-0.2790069580078125
1.2499618530273438,1.2499618530273438,-0.3284454345703125
1.2499618530273438,1.2499618530273438,-0.2065277099609375
1.2499618530273438,1.2499618530273438,-0.084686279296875
1.2499618530273438,1.2499618530273438,-0.0392913818359375
1.2499618530273438,1.2499618530273438,-0.0141143798828125
1.2499618530273438,1.2499618530273438,0.2462005615234375
1.2499618530273438,1.2499618530273438,0.2292633056640625
1.2499618530273438,1.2499618530273438,0.1526641845703125
1.2499618530273438,1.2499618530273438,0.265655517578125
1.2499618530273438,1.2499618530273438,0.2828216552734375
1.2499618530273438,1.2499618530273438,0.296783447265625
1.2499618530273438,1.2499618530273438,0.2092742919921875
0.9446334838867188,0.8893966674804688,0.2855682373046875
1.2499618530273438,1.2499618530273438,0.20965576171875
1.2499618530273438,1.2499618530273438,0.3436279296875
1.2499618530273438,1.2499618530273438,0.4492950439453125
1.2499618530273438,1.2499618530273438,0.366973876953125
1.2499618530273438,1.2499618530273438,0.185699462890625
1.2499618530273438,1.2499618530273438,0.1514434814453125
1.2499618530273438,1.2499618530273438,0.0666046142578125
1.2499618530273438,1.2499618530273438,-0.115966796875
1.2499618530273438,1.2499618530273438,-0.154266357421875
1.2499618530273438,1.2499618530273438,-0.2190399169921875
1.2499618530273438,1.2499618530273438,-0.3057861328125
1.2499618530273438,1.2499618530273438,-0.394439697265625
1.2499618530273438,1.2499618530273438,-0.411834716796875
1.2499618530273438,1.2499618530273438,-0.446014404296875
0.9059906005859375,0.9624481201171875,-0.469970703125
1.2499618530273438,1.2499618530273438,-0.3157806396484375
1.2499618530273438,1.2499618530273438,-0.2928924560546875
1.2499618530273438,1.2499618530273438,-0.2855682373046875
1.2499618530273438,1.2499618530273438,-0.162811279296875
1.2499618530273438,1.2499618530273438,-0.0582122802734375
1.2499618530273438,1.2499618530273438,0.01007080078125
1.2499618530273438,1.2499618530273438,0.0360107421875
1.2499618530273438,1.2499618530273438,0.189361572265625
1.2499618530273438,1.2499618530273438,0.2455902099609375
1.2499618530273438,1.2499618530273438,0.1467132568359375
1.2499618530273438,1.2499618530273438,0.233612060546875
1.2499618530273438,1.2499618530273438,0.2803802490234375
1.2499618530273438,1.2499618530273438,0.22705078125
1.2499618530273438,1.2499618530273438,0.23773193359375
0.9566497802734375,0.8940505981445312,0.3183746337890625
1.2499618530273438,1.2499618530273438,0.4227447509765625
1.2499618530273438,1.2499618530273438,0.311431884765625
1.2499618530273438,1.2499618530273438,0.413818359375
1.2499618530273438,1.2499618530273438,0.255889892578125
1.2499618530273438,1.2499618530273438,0.1373291015625
1.2499618530273438,1.2499618530273438,0.1226043701171875
1.2499618530273438,1.2499618530273438,0.1206207275390625
1.2499618530273438,1.2499618530273438,-0.129241943359375
1.2499618530273438,1.2499618530273438,-0.156402587890625
1.2499618530273438,1.2499618530273438,-0.15411376953125
1.2499618530273438,1.2499618530273438,-0.3800201416015625
1.2499618530273438,1.2499618530273438,-0.450439453125
1.2499618530273438,1.2499618530273438,-0.4253387451171875
1.2499618530273438,1.2499618530273438,-0.467681884765625
0.8945465087890625,0.9691238403320312,-0.4541778564453125
1.2499618530273438,1.2499618530273438,-0.2938079833984375
1.2499618530273438,1.2499618530273438,-0.2410125732421875
1.2499618530273438,1.2499618530273438,-0.3432464599609375
1.2499618530273438,1.2499618530273438,-0.1360321044921875
1.2499618530273438,1.2499618530273438,-0.097198486328125
1.2499618530273438,1.2499618530273438,-0.03509521484375
1.2499618530273438,1.2499618530273438,-0.0112152099609375
1.2499618530273438,1.2499618530273438,0.1526641845703125
1.2499618530273438,1.2499618530273438,0.2154541015625
1.2499618530273438,1.2499618530273438,0.1385498046875
1.2499618530273438,1.2499618530273438,0.2062225341796875
1.2499618530273438,1.2499618530273438,0.2779388427734375
1.2499618530273438,1.2499618530273438,0.2964019775390625
1.2499618530273438,1.2499618530273438,0.207366943359375
0.9617233276367188,0.926513671875,0.3763580322265625
1.2499618530273438,1.2499618530273438,0.2817535400390625
1.2499618530273438,1.2499618530273438,0.3200531005859375
1.2499618530273438,1.2499618530273438,0.438995361328125
1.2499618530273438,1.2499618530273438,0.3372955322265625
1.2499618530273438,1.2499618530273438,0.2048492431640625
1.2499618530273438,1.2499618530273438,0.2452850341796875
1.2499618530273438,1.2499618530273438,0.1076507568359375
1.2499618530273438,1.2499618530273438,-0.12969970703125
1.2499618530273438,1.2499618530273438,-0.12939453125
1.2499618530273438,1.2499618530273438,-0.1849365234375
1.2499618530273438,1.2499618530273438,-0.3481292724609375
1.2499618530273438,1.2499618530273438,-0.375213623046875
1.2499618530273438,1.2499618530273438,-0.478057861328125
1.2499618530273438,1.2499618530273438,-0.4498291015625
0.8962631225585938,0.95458984375,-0.4892730712890625
1.2499618530273438,1.2499618530273438,-0.3147125244140625
1.2499618530273438,1.2499618530273438,-0.2912139892578125
1.2499618530273438,1.2499618530273438,-0.26824951171875
1.2499618530273438,1.2499618530273438,-0.16998291015625
1.2499618530273438,1.2499618530273438,-0.1084136962890625
1.2499618530273438,1.2499618530273438,-0.051422119140625
1.2499618530273438,1.2499618530273438,0.0547027587890625
1.2499618530273438,1.2499618530273438,0.1975250244140625
1.2499618530273438,1.2499618530273438,0.208892822265625
1.2499618530273438,1.2499618530273438,0.17822265625
1.2499618530273438,1.2499618530273438,0.270538330078125
1.2499618530273438,1.2499618530273438,0.304718017578125
1.2499618530273438,1.2499618530273438,0.314483642578125
1.2499618530273438,1.2499618530273438,0.239105224609375
0.97412109375,0.9067153930664062,0.305328369140625
1.2499618530273438,1.2499618530273438,0.2799224853515625
1.2499618530273438,1.2499618530273438,0.2954864501953125
1.2499618530273438,1.2499618530273438,0.42694091796875
1.2499618530273438,1.2499618530273438,0.2532958984375
1.2499618530273438,1.2499618530273438,0.1055145263671875
1.2499618530273438,1.2499618530273438,0.14617919921875
1.2499618530273438,1.2499618530273438,0.115966796875
1.2499618530273438,1.2499618530273438,-0.2410125732421875
1.2499618530273438,1.2499618530273438,-0.1268768310546875
1.2499618530273438,1.2499618530273438,-0.1659393310546875
1.2499618530273438,1.2499618530273438,-0.3537750244140625
1.2499618530273438,1.2499618530273438,-0.3736114501953125
1.2499618530273438,1.2499618530273438,-0.412750244140625
1.2499618530273438,1.2499618530273438,-0.3868865966796875
0.8840179443359375,0.9406661987304688,-0.452728271484375
1.2499618530273438,1.2499618530273438,-0.29266357421875
1.2499618530273438,1.2499618530273438,-0.2508544921875
1.2499618530273438,1.2499618530273438,-0.2735137939453125
1.2499618530273438,1.2499618530273438,-0.26214599609375
1.2499618530273438,1.2499618530273438,-0.0040435791015625
1.2499618530273438,1.2499618530273438,-0.104217529296875
1.2499618530273438,1.2499618530273438,-0.0449371337890625
1.2499618530273438,1.2499618530273438,0.2565765380859375
1.2499618530273438,1.2499618530273438,0.174407958984375
1.2499618530273438,1.2499618530273438,0.20751953125
1.2499618530273438,1.2499618530273438,0.2764892578125
1.2499618530273438,1.2499618530273438,0.24932861328125
1.2499618530273438,1.2499618530273438,0.2835845947265625
1.2499618530273438,1.2499618530273438,0.27008056640625
0.9586715698242188,0.903167724609375,0.262451171875
1.2499618530273438,1.2499618530273438,0.2519989013671875
1.2499618530273438,1.2499618530273438,0.286865234375
1.2499618530273438,1.2499618530273438,0.448760986328125
1.2499618530273438,1.2499618530273438,0.292205810546875
1.2499618530273438,1.2499618530273438,0.19866943359375
1.2499618530273438,1.2499618530273438,0.1995849609375
1.2499618530273438,1.2499618530273438,0.0565338134765625
1.2499618530273438,1.2499618530273438,-0.160369873046875
1.2499618530273438,1.2499618530273438,-0.1798248291015625
1.2499618530273438,1.2499618530273438,-0.1921844482421875
1.2499618530273438,1.2499618530273438,-0.2846527099609375
1.2499618530273438,1.2499618530273438,-0.400848388671875
1.2499618530273438,1.2499618530273438,-0.4697418212890625
1.2499618530273438,1.2499618530273438,-0.47119140625
0.88775634765625,0.9450149536132812,-0.483551025390625
1.2499618530273438,1.2499618530273438,-0.3009033203125
1.2499618530273438,1.2499618530273438,-0.3078460693359375
1.2499618530273438,1.2499618530273438,-0.2703857421875
1.2499618530273438,1.2499618530273438,-0.0865936279296875
1.2499618530273438,1.2499618530273438,-0.0414276123046875
1.2499618530273438,1.2499618530273438,-0.0051116943359375
1.2499618530273438,1.2499618530273438,-0.1012420654296875
1.2499618530273438,1.2499618530273438,0.2494049072265625
1.2499618530273438,1.2499618530273438,0.2803802490234375
1.2499618530273438,1.2499618530273438,0.1837921142578125
1.2499618530273438,1.2499618530273438,0.3156280517578125
1.2499618530273438,1.2499618530273438,0.2614593505859375
1.2499618530273438,1.2499618530273438,0.267181396484375
1.2499618530273438,1.2499618530273438,0.276641845703125
0.9412002563476562,0.8935165405273438,0.290374755859375
1.2499618530273438,1.2499618530273438,0.234222412109375
1.2499618530273438,1.2499618530273438,0.3079986572265625
1.2499618530273438,1.2499618530273438,0.4796600341796875
1.2499618530273438,1.2499618530273438,0.30242919921875
1.2499618530273438,1.2499618530273438,0.128631591796875
1.2499618530273438,1.2499618530273438,0.1873779296875
1.2499618530273438,1.2499618530273438,0.09674072265625
1.2499618530273438,1.2499618530273438,-0.214080810546875
1.2499618530273438,1.2499618530273438,-0.2272796630859375
1.2499618530273438,1.2499618530273438,-0.1187896728515625
1.2499618530273438,1.2499618530273438,-0.4325103759765625
1.2499618530273438,1.2499618530273438,-0.411376953125
1.2499618530273438,1.2499618530273438,-0.4271697998046875
1.2499618530273438,1.2499618530273438,-0.4425811767578125
0.8993911743164062,0.955963134765625,-0.5112457275390625
1.2499618530273438,1.2499618530273438,-0.252227783203125
1.2499618530273438,1.2499618530273438,-0.2509307861328125
1.2499618530273438,1.2499618530273438,-0.3498077392578125
1.2499618530273438,1.2499618530273438,-0.1955413818359375
1.2499618530273438,1.2499618530273438,-0.06103515625
1.2499618530273438,1.2499618530273438,-0.0875091552734375
1.2499618530273438,1.2499618530273438,0.013885498046875
1.2499618530273438,1.2499618530273438,0.1663970947265625
1.2499618530273438,1.2499618530273438,0.215301513671875
1.2499618530273438,1.2499618530273438,0.1399993896484375
1.2499618530273438,1.2499618530273438,0.3084564208984375
1.2499618530273438,1.2499618530273438,0.2562713623046875
1.2499618530273438,1.2499618530273438,0.2387237548828125
1.2499618530273438,1.2499618530273438,0.21148681640625
0.9311676025390625,0.87738037109375,0.326385498046875
1.2499618530273438,1.2499618530273438,0.3931427001953125
1.2499618530273438,1.2499618530273438,0.323028564453125
1.2499618530273438,1.2499618530273438,0.4520416259765625
1.2499618530273438,1.2499618530273438,0.3574371337890625
1.2499618530273438,1.2499618530273438,0.2043914794921875
1.2499618530273438,1.2499618530273438,0.160064697265625
1.2499618530273438,1.2499618530273438,0.004425048828125
1.2499618530273438,1.2499618530273438,-0.13336181640625
1.2499618530273438,1.2499618530273438,-0.15960693359375
1.2499618530273438,1.2499618530273438,-0.18463134765625
1.2499618530273438,1.2499618530273438,-0.446014404296875
1.2499618530273438,1.2499618530273438,-0.4141998291015625
1.2499618530273438,1.2499618530273438,-0.4436492919921875
1.2499618530273438,1.2499618530273438,-0.4615020751953125
0.8923721313476562,0.9656906127929688,-0.4883575439453125
1.2499618530273438,1.2499618530273438,-0.3094482421875
1.2499618530273438,1.2499618530273438,-0.249481201171875
1.2499618530273438,1.2499618530273438,-0.3447723388671875
1.2499618530273438,1.2499618530273438,-0.115203857421875
1.2499618530273438,1.2499618530273438,0.0063323974609375
1.2499618530273438,1.2499618530273438,-0.0005340576171875
1.2499618530273438,1.2499618530273438,0.005645751953125
1.2499618530273438,1.2499618530273438,0.2233123779296875
1.2499618530273438,1.2499618530273438,0.2153778076171875
1.2499618530273438,1.2499618530273438,0.18890380859375
1.2499618530273438,1.2499618530273438,0.2948760986328125
1.2499618530273438,1.2499618530273438,0.18524169921875
1.2499618530273438,1.2499618530273438,0.302581787109375
1.2499618530273438,1.2499618530273438,0.2567291259765625
0.906982421875,0.8557510375976562,0.3270721435546875
1.2499618530273438,1.2499618530273438,0.2753448486328125
1.2499618530273438,1.2499618530273438,0.298309326171875
1.2499618530273438,1.2499618530273438,0.446929931640625
1.2499618530273438,1.2499618530273438,0.2713775634765625
1.2499618530273438,1.2499618530273438,0.1889801025390625
1.2499618530273438,1.2499618530273438,0.1786041259765625
1.2499618530273438,1.2499618530273438,0.027923583984375
1.2499618530273438,1.2499618530273438,-0.1194000244140625
1.2499618530273438,1.2499618530273438,-0.192108154296875
1.2499618530273438,1.2499618530273438,-0.178680419921875
1.2499618530273438,1.2499618530273438,-0.3359222412109375
