Voltage.AUX_RLicht,Voltage.AUX_LLicht,Voltage.AUX_SchalterPlexus
1.0356903076171875,1.1174392700195312,-0.441741943359375
1.2499618530273438,1.2499618530273438,-0.2159881591796875
1.2499618530273438,1.2499618530273438,-0.248565673828125
1.2499618530273438,1.2499618530273438,-0.2159881591796875
1.2499618530273438,1.2499618530273438,-0.1374053955078125
1.2499618530273438,1.2499618530273438,-0.0505828857421875
1.2499618530273438,1.2499618530273438,-0.05157470703125
1.2499618530273438,1.2499618530273438,0.0461578369140625
1.2499618530273438,1.2499618530273438,0.234527587890625
1.2499618530273438,1.2499618530273438,0.192718505859375
1.2499618530273438,1.2499618530273438,0.149993896484375
1.2499618530273438,1.2499618530273438,0.2489471435546875
1.2499618530273438,1.2499618530273438,0.22735595703125
1.2499618530273438,1.2499618530273438,0.2136993408203125
1.2499618530273438,1.2499618530273438,0.281524658203125
1.0292816162109375,1.0098648071289062,0.3488922119140625
1.2499618530273438,1.2499618530273438,0.29937744140625
1.2499618530273438,1.2499618530273438,0.3504180908203125
1.2499618530273438,1.2499618530273438,0.3940582275390625
1.2499618530273438,1.2499618530273438,0.2436065673828125
1.2499618530273438,1.2499618530273438,0.162506103515625
1.2499618530273438,1.2499618530273438,0.1511383056640625
1.2499618530273438,1.2499618530273438,0.003814697265625
1.2499618530273438,1.2499618530273438,-0.14495849609375
1.2499618530273438,1.2499618530273438,-0.1100921630859375
1.2499618530273438,1.2499618530273438,-0.2742767333984375
1.2499618530273438,1.2499618530273438,-0.4388427734375
1.2499618530273438,1.2499618530273438,-0.4134368896484375
1.2499618530273438,1.2499618530273438,-0.4061126708984375
1.2499618530273438,1.2499618530273438,-0.4364013671875
1.090850830078125,1.1240005493164062,-0.4148101806640625
1.2499618530273438,1.2499618530273438,-0.2730560302734375
1.2499618530273438,1.2499618530273438,-0.25665283203125
1.2499618530273438,1.2499618530273438,-0.243988037109375
1.2499618530273438,1.2499618530273438,-0.1415252685546875
1.2499618530273438,1.2499618530273438,0.02777099609375
1.2499618530273438,1.2499618530273438,-0.0745391845703125
1.2499618530273438,1.2499618530273438,0.05096435546875
1.2499618530273438,1.2499618530273438,0.2155303955078125
1.2499618530273438,1.2499618530273438,0.20843505859375
1.2499618530273438,1.2499618530273438,0.14190673828125
1.2499618530273438,1.2499618530273438,0.290985107421875
1.2499618530273438,1.2499618530273438,0.28564453125
1.2499618530273438,1.2499618530273438,0.22705078125
1.2499618530273438,1.2499618530273438,0.2779388427734375
1.0329055786132812,0.9915542602539062,0.338897705078125
1.2499618530273438,1.2499618530273438,0.3188323974609375
1.2499618530273438,1.2499618530273438,0.3774261474609375
1.2499618530273438,1.2499618530273438,0.3887176513671875
1.2499618530273438,1.2499618530273438,0.239410400390625
1.2499618530273438,1.2499618530273438,0.1889801025390625
1.2499618530273438,1.2499618530273438,0.1181793212890625
1.2499618530273438,1.2499618530273438,0.0321197509765625
1.2499618530273438,1.2499618530273438,-0.0959014892578125
1.2499618530273438,1.2499618530273438,-0.1714324951171875
1.2499618530273438,1.2499618530273438,-0.237274169921875
1.2499618530273438,1.2499618530273438,-0.4152679443359375
1.2499618530273438,1.2499618530273438,-0.38360595703125
1.2499618530273438,1.2499618530273438,-0.3771209716796875
1.2499618530273438,1.2499618530273438,-0.425872802734375
1.0706329345703125,1.1313247680664062,-0.480804443359375
1.2499618530273438,1.2499618530273438,-0.2812957763671875
1.2499618530273438,1.2499618530273438,-0.2829742431640625
1.2499618530273438,1.2499618530273438,-0.2417755126953125
1.2499618530273438,1.2499618530273438,-0.0717926025390625
1.2499618530273438,1.2499618530273438,-0.01678466796875
1.2499618530273438,1.2499618530273438,-0.030975341796875
1.2499618530273438,1.2499618530273438,0.0962066650390625
1.2499618530273438,1.2499618530273438,0.26824951171875
1.2499618530273438,1.2499618530273438,0.2384185791015625
1.2499618530273438,1.2499618530273438,0.22857666015625
1.2499618530273438,1.2499618530273438,0.278778076171875
1.2499618530273438,1.2499618530273438,0.239410400390625
1.2499618530273438,1.2499618530273438,0.217437744140625
1.2499618530273438,1.2499618530273438,0.322113037109375
1.0192108154296875,0.9880447387695312,0.3436279296875
1.2499618530273438,1.2499618530273438,0.3215789794921875
1.2499618530273438,1.2499618530273438,0.3250885009765625
1.2499618530273438,1.2499618530273438,0.3763580322265625
1.2499618530273438,1.2499618530273438,0.282745361328125
1.2499618530273438,1.2499618530273438,0.215606689453125
1.2499618530273438,1.2499618530273438,0.18798828125
1.2499618530273438,1.2499618530273438,0.009002685546875
1.2499618530273438,1.2499618530273438,-0.1558685302734375
1.2499618530273438,1.2499618530273438,-0.2133941650390625
1.2499618530273438,1.2499618530273438,-0.2099609375
1.2499618530273438,1.2499618530273438,-0.3881072998046875
1.2499618530273438,1.2499618530273438,-0.4140472412109375
1.2499618530273438,1.2499618530273438,-0.3701019287109375
1.2499618530273438,1.2499618530273438,-0.4927825927734375
1.0668182373046875,1.1683273315429688,-0.4026031494140625
1.2499618530273438,1.2499618530273438,-0.270843505859375
1.2499618530273438,1.2499618530273438,-0.3064727783203125
1.2499618530273438,1.2499618530273438,-0.27587890625
1.2499618530273438,1.2499618530273438,-0.1114654541015625
1.2499618530273438,1.2499618530273438,-0.0579071044921875
1.2499618530273438,1.2499618530273438,-0.0081634521484375
1.2499618530273438,1.2499618530273438,0.015106201171875
1.2499618530273438,1.2499618530273438,0.20843505859375
1.2499618530273438,1.2499618530273438,0.22705078125
1.2499618530273438,1.2499618530273438,0.2393341064453125
1.2499618530273438,1.2499618530273438,0.228118896484375
1.2499618530273438,1.2499618530273438,0.2732086181640625
1.2499618530273438,1.2499618530273438,0.19866943359375
1.2499618530273438,1.2499618530273438,0.249176025390625
1.0928726196289062,0.9854888916015625,0.320587158203125
1.2499618530273438,1.2499618530273438,0.296783447265625
1.2499618530273438,1.2499618530273438,0.349273681640625
1.2499618530273438,1.2499618530273438,0.373077392578125
1.2499618530273438,1.2499618530273438,0.233612060546875
1.2499618530273438,1.2499618530273438,0.1580047607421875
1.2499618530273438,1.2499618530273438,0.1618194580078125
1.2499618530273438,1.2499618530273438,-0.03448486328125
1.2499618530273438,1.2499618530273438,-0.115966796875
1.2499618530273438,1.2499618530273438,-0.19683837890625
1.2499618530273438,1.2499618530273438,-0.186004638671875
1.2499618530273438,1.2499618530273438,-0.3903961181640625
1.2499618530273438,1.2499618530273438,-0.4599761962890625
1.2499618530273438,1.2499618530273438,-0.5025482177734375
1.2499618530273438,1.2499618530273438,-0.367431640625
1.128997802734375,1.1673736572265625,-0.3887939453125
1.2499618530273438,1.2499618530273438,-0.2507781982421875
1.2499618530273438,1.2499618530273438,-0.270538330078125
1.2499618530273438,1.2499618530273438,-0.16357421875
1.2499618530273438,1.2499618530273438,-0.0738525390625
1.2499618530273438,1.2499618530273438,-0.0417327880859375
1.2499618530273438,1.2499618530273438,-0.0112152099609375
1.2499618530273438,1.2499618530273438,0.19287109375
1.2499618530273438,1.2499618530273438,0.1416015625
1.2499618530273438,1.2499618530273438,0.2252197265625
1.2499618530273438,1.2499618530273438,0.2213287353515625
1.2499618530273438,1.2499618530273438,0.267181396484375
1.2499618530273438,1.2499618530273438,0.24505615234375
1.2499618530273438,1.2499618530273438,0.1556396484375
1.2499618530273438,1.2499618530273438,0.2593994140625
1.0738754272460938,1.031951904296875,0.3125
1.2499618530273438,1.2499618530273438,0.3131103515625
1.2499618530273438,1.2499618530273438,0.3595733642578125
1.2499618530273438,1.2499618530273438,0.263519287109375
1.2499618530273438,1.2499618530273438,0.2178955078125
1.2499618530273438,1.2499618530273438,0.2359771728515625
1.2499618530273438,1.2499618530273438,0.1573944091796875
1.2499618530273438,1.2499618530273438,0.0930023193359375
1.2499618530273438,1.2499618530273438,-0.0792694091796875
1.2499618530273438,1.2499618530273438,-0.1267242431640625
1.2499618530273438,1.2499618530273438,-0.205535888671875
1.2499618530273438,1.2499618530273438,-0.3537750244140625
1.2499618530273438,1.2499618530273438,-0.37994384765625
1.2499618530273438,1.2499618530273438,-0.432586669921875
1.2499618530273438,1.2499618530273438,-0.4859161376953125
1.1782073974609375,1.206512451171875,-0.4399871826171875
1.2499618530273438,1.2499618530273438,-0.2579498291015625
1.2499618530273438,1.2499618530273438,-0.245361328125
1.2499618530273438,1.2499618530273438,-0.201873779296875
1.2499618530273438,1.2499618530273438,-0.0978851318359375
1.2499618530273438,1.2499618530273438,-0.0286865234375
1.2499618530273438,1.2499618530273438,-0.047454833984375
1.2499618530273438,1.2499618530273438,0.062103271484375
1.2499618530273438,1.2499618530273438,0.237884521484375
1.2499618530273438,1.2499618530273438,0.1738739013671875
1.2499618530273438,1.2499618530273438,0.16815185546875
1.2499618530273438,1.2499618530273438,0.2872467041015625
1.2499618530273438,1.2499618530273438,0.2001953125
1.2499618530273438,1.2499618530273438,0.2207183837890625
1.2499618530273438,1.2499618530273438,0.283660888671875
1.1067581176757812,1.0673904418945312,0.31097412109375
1.2499618530273438,1.2499618530273438,0.3354644775390625
1.2499618530273438,1.2499618530273438,0.3623199462890625
1.2499618530273438,1.2499618530273438,0.367431640625
1.2499618530273438,1.2499618530273438,0.2202606201171875
1.2499618530273438,1.2499618530273438,0.203094482421875
1.2499618530273438,1.2499618530273438,0.205841064453125
1.2499618530273438,1.2499618530273438,0.017242431640625
1.2499618530273438,1.2499618530273438,-0.187530517578125
1.2499618530273438,1.2499618530273438,-0.1758575439453125
1.2499618530273438,1.2499618530273438,-0.2101898193359375
1.2499618530273438,1.2499618530273438,-0.367431640625
1.2499618530273438,1.2499618530273438,-0.4276275634765625
1.2499618530273438,1.2499618530273438,-0.4187774658203125
1.2499618530273438,1.2499618530273438,-0.52825927734375
1.1454391479492188,1.2260055541992188,-0.428924560546875
1.2499618530273438,1.2499618530273438,-0.2764129638671875
1.2499618530273438,1.2499618530273438,-0.19012451171875
1.2499618530273438,1.2499618530273438,-0.275726318359375
1.2499618530273438,1.2499618530273438,-0.1236724853515625
1.2499618530273438,1.2499618530273438,-0.0107574462890625
1.2499618530273438,1.2499618530273438,-0.05889892578125
1.2499618530273438,1.2499618530273438,0.0167083740234375
1.2499618530273438,1.2499618530273438,0.202178955078125
1.2499618530273438,1.2499618530273438,0.113525390625
1.2499618530273438,1.2499618530273438,0.1522064208984375
1.2499618530273438,1.2499618530273438,0.2541351318359375
1.2499618530273438,1.2499618530273438,0.1979827880859375
1.2499618530273438,1.2499618530273438,0.240936279296875
1.2499618530273438,1.2499618530273438,0.2732086181640625
1.1333084106445312,1.1038589477539062,0.3649139404296875
1.2499618530273438,1.2499618530273438,0.28289794921875
1.2499618530273438,1.2499618530273438,0.3495025634765625
1.2499618530273438,1.2499618530273438,0.3571319580078125
1.2499618530273438,1.2499618530273438,0.261993408203125
1.2499618530273438,1.2499618530273438,0.1938629150390625
1.2499618530273438,1.2499618530273438,0.0672149658203125
1.2499618530273438,1.2499618530273438,-0.0885009765625
1.2499618530273438,1.2499618530273438,-0.1031494140625
1.2499618530273438,1.2499618530273438,-0.1085662841796875
1.2499618530273438,1.2499618530273438,-0.2223968505859375
1.2499618530273438,1.2499618530273438,-0.3981781005859375
1.2499618530273438,1.2499618530273438,-0.41961669921875
1.2499618530273438,1.2499618530273438,-0.4386138916015625
1.2499618530273438,1.2499618530273438,-0.474853515625
1.1497879028320312,1.2096786499023438,-0.418243408203125
1.2499618530273438,1.2499618530273438,-0.260009765625
1.2499618530273438,1.2499618530273438,-0.2880859375
1.2499618530273438,1.2499618530273438,-0.264739990234375
1.2499618530273438,1.2499618530273438,-0.0533294677734375
1.2499618530273438,1.2499618530273438,-0.05035400390625
1.2499618530273438,1.2499618530273438,-0.1482391357421875
1.2499618530273438,1.2499618530273438,0.1377105712890625
1.2499618530273438,1.2499618530273438,0.1836395263671875
1.2499618530273438,1.2499618530273438,0.2051544189453125
1.2499618530273438,1.2499618530273438,0.1752471923828125
1.2499618530273438,1.2499618530273438,0.279388427734375
1.2499618530273438,1.2499618530273438,0.2538299560546875
1.2499618530273438,1.2499618530273438,0.194854736328125
1.2499618530273438,1.2499618530273438,0.240936279296875
1.1597061157226562,1.1362838745117188,0.310821533203125
1.2499618530273438,1.2499618530273438,0.268402099609375
1.2499618530273438,1.2499618530273438,0.3713226318359375
1.2499618530273438,1.2499618530273438,0.39215087890625
1.2499618530273438,1.2499618530273438,0.2776336669921875
1.2499618530273438,1.2499618530273438,0.1052093505859375
1.2499618530273438,1.2499618530273438,0.13916015625
1.2499618530273438,1.2499618530273438,0.0620269775390625
1.2499618530273438,1.2499618530273438,-0.1876068115234375
1.2499618530273438,1.2499618530273438,-0.09918212890625
1.2499618530273438,1.2499618530273438,-0.2313995361328125
1.2499618530273438,1.2499618530273438,-0.3974151611328125
1.2499618530273438,1.2499618530273438,-0.4259490966796875
1.2499618530273438,1.2499618530273438,-0.4296112060546875
1.2499618530273438,1.2499618530273438,-0.463104248046875
1.1305999755859375,1.213531494140625,-0.4029083251953125
1.2499618530273438,1.2499618530273438,-0.3617095947265625
1.2499618530273438,1.2499618530273438,-0.320587158203125
1.2499618530273438,1.2499618530273438,-0.2504730224609375
1.2499618530273438,1.2499618530273438,-0.0792694091796875
1.2499618530273438,1.2499618530273438,0.0189208984375
1.2499618530273438,1.2499618530273438,-0.00579833984375
1.2499618530273438,1.2499618530273438,0.1477813720703125
1.2499618530273438,1.2499618530273438,0.178680419921875
1.2499618530273438,1.2499618530273438,0.2001190185546875
1.2499618530273438,1.2499618530273438,0.1531982421875
1.2499618530273438,1.2499618530273438,0.2684783935546875
1.2499618530273438,1.2499618530273438,0.29510498046875
1.2499618530273438,1.2499618530273438,0.2391815185546875
1.2499618530273438,1.2499618530273438,0.289764404296875
1.1930465698242188,1.1570358276367188,0.2733612060546875
1.2499618530273438,1.2499618530273438,0.27923583984375
1.2499618530273438,1.2499618530273438,0.433349609375
1.2499618530273438,1.2499618530273438,0.3046417236328125
1.2499618530273438,1.2499618530273438,0.3171539306640625
1.2499618530273438,1.2499618530273438,0.1886749267578125
1.2499618530273438,1.2499618530273438,0.18646240234375
1.2499618530273438,1.2499618530273438,-0.1087188720703125
1.2499618530273438,1.2499618530273438,-0.1004791259765625
1.2499618530273438,1.2499618530273438,-0.1568603515625
1.2499618530273438,1.2499618530273438,-0.184478759765625
1.2499618530273438,1.2499618530273438,-0.3515625
1.2499618530273438,1.2499618530273438,-0.4592132568359375
1.2499618530273438,1.2499618530273438,-0.4552459716796875
1.2499618530273438,1.2499618530273438,-0.488128662109375
1.1626052856445312,1.229248046875,-0.36773681640625
1.2499618530273438,1.2499618530273438,-0.4048919677734375
1.2499618530273438,1.2499618530273438,-0.3212738037109375
1.2499618530273438,1.2499618530273438,-0.22674560546875
1.2499618530273438,1.2499618530273438,-0.095672607421875
1.2499618530273438,1.2499618530273438,-0.0098419189453125
1.2499618530273438,1.2499618530273438,0.0128173828125
1.2499618530273438,1.2499618530273438,0.111083984375
1.2499618530273438,1.2499618530273438,0.234222412109375
1.2499618530273438,1.2499618530273438,0.310516357421875
1.2499618530273438,1.2499618530273438,0.2497100830078125
1.2499618530273438,1.2499618530273438,0.2728271484375
1.2499618530273438,1.2499618530273438,0.2353668212890625
1.2499618530273438,1.2499618530273438,0.16845703125
1.2499618530273438,1.2499618530273438,0.270843505859375
1.2334442138671875,1.1763381958007812,0.3176116943359375
1.2499618530273438,1.2499618530273438,0.3128814697265625
1.2499618530273438,1.2499618530273438,0.400390625
1.2499618530273438,1.2499618530273438,0.3806304931640625
1.2499618530273438,1.2499618530273438,0.330657958984375
1.2499618530273438,1.2499618530273438,0.2341461181640625
1.2499618530273438,1.2499618530273438,0.19195556640625
1.2499618530273438,1.2499618530273438,-0.0384521484375
1.2499618530273438,1.2499618530273438,-0.190277099609375
1.2499618530273438,1.2499618530273438,-0.199127197265625
1.2499618530273438,1.2499618530273438,-0.1976776123046875
1.2499618530273438,1.2499618530273438,-0.395965576171875
1.2499618530273438,1.2499618530273438,-0.5047607421875
1.2499618530273438,1.2499618530273438,-0.3607177734375
1.2499618530273438,1.2499618530273438,-0.4669189453125
1.1960983276367188,1.2499618530273438,-0.4598236083984375
1.2499618530273438,1.2499618530273438,-0.3084564208984375
1.2499618530273438,1.2499618530273438,-0.28900146484375
1.2499618530273438,1.2499618530273438,-0.1629638671875
1.2499618530273438,1.2499618530273438,-0.1434326171875
1.2499618530273438,1.2499618530273438,-0.0135040283203125
1.2499618530273438,1.2499618530273438,-0.00274658203125
1.2499618530273438,1.2499618530273438,0.084075927734375
1.2499618530273438,1.2499618530273438,0.198974609375
1.2499618530273438,1.2499618530273438,0.2459716796875
1.2499618530273438,1.2499618530273438,0.100250244140625
1.2499618530273438,1.2499618530273438,0.241546630859375
1.2499618530273438,1.2499618530273438,0.230255126953125
1.2499618530273438,1.2499618530273438,0.2324676513671875
1.2499618530273438,1.2499618530273438,0.2756500244140625
1.2499618530273438,1.210784912109375,0.36285400390625
1.2499618530273438,1.2499618530273438,0.2834320068359375
1.2499618530273438,1.2499618530273438,0.351715087890625
1.2499618530273438,1.2499618530273438,0.2923583984375
1.2499618530273438,1.2499618530273438,0.22064208984375
1.2499618530273438,1.2499618530273438,0.19073486328125
1.2499618530273438,1.2499618530273438,0.1534271240234375
1.2499618530273438,1.2499618530273438,-0.0025177001953125
1.2499618530273438,1.2499618530273438,-0.1531982421875
1.2499618530273438,1.2499618530273438,-0.1688385009765625
1.2499618530273438,1.2499618530273438,-0.30792236328125
1.2499618530273438,1.2499618530273438,-0.4319000244140625
1.2499618530273438,1.2499618530273438,-0.4930877685546875
1.2499618530273438,1.2499618530273438,-0.3863525390625
1.2499618530273438,1.2499618530273438,-0.453033447265625
1.2498092651367188,1.2499618530273438,-0.4062652587890625
1.2499618530273438,1.2499618530273438,-0.2899169921875
1.2499618530273438,1.2499618530273438,-0.3199005126953125
1.2499618530273438,1.2499618530273438,-0.250244140625
1.2499618530273438,1.2499618530273438,-0.151214599609375
1.2499618530273438,1.2499618530273438,0.009918212890625
1.2499618530273438,1.2499618530273438,-0.04913330078125
1.2499618530273438,1.2499618530273438,0.0748443603515625
1.2499618530273438,1.2499618530273438,0.2196502685546875
1.2499618530273438,1.2499618530273438,0.1978302001953125
1.2499618530273438,1.2499618530273438,0.2252197265625
1.2499618530273438,1.2499618530273438,0.2935028076171875
1.2499618530273438,1.2499618530273438,0.2472686767578125
1.2499618530273438,1.2499618530273438,0.2410888671875
1.2499618530273438,1.2499618530273438,0.3078460693359375
1.2499618530273438,1.2197113037109375,0.3462982177734375
1.2499618530273438,1.2499618530273438,0.3427886962890625
1.2499618530273438,1.2499618530273438,0.3629302978515625
1.2499618530273438,1.2499618530273438,0.386505126953125
1.2499618530273438,1.2499618530273438,0.314178466796875
1.2499618530273438,1.2499618530273438,0.217742919921875
1.2499618530273438,1.2499618530273438,0.1673126220703125
1.2499618530273438,1.2499618530273438,-0.058441162109375
1.2499618530273438,1.2499618530273438,-0.1595306396484375
1.2499618530273438,1.2499618530273438,-0.1776123046875
1.2499618530273438,1.2499618530273438,-0.2161407470703125
1.2499618530273438,1.2499618530273438,-0.3851318359375
1.2499618530273438,1.2499618530273438,-0.44830322265625
1.2499618530273438,1.2499618530273438,-0.4815673828125
1.2499618530273438,1.2499618530273438,-0.4682159423828125
1.2499618530273438,1.2499618530273438,-0.372772216796875
1.2499618530273438,1.2499618530273438,-0.260009765625
1.2499618530273438,1.2499618530273438,-0.2819061279296875
1.2499618530273438,1.2499618530273438,-0.1889801025390625
1.2499618530273438,1.2499618530273438,-0.1607513427734375
1.2499618530273438,1.2499618530273438,0.0060272216796875
1.2499618530273438,1.2499618530273438,-0.060272216796875
1.2499618530273438,1.2499618530273438,0.041961669921875
1.2499618530273438,1.2499618530273438,0.1993560791015625
1.2499618530273438,1.2499618530273438,0.162811279296875
1.2499618530273438,1.2499618530273438,0.1456451416015625
1.2499618530273438,1.2499618530273438,0.2457427978515625
1.2499618530273438,1.2499618530273438,0.2630615234375
1.2499618530273438,1.2499618530273438,0.2503204345703125
1.2499618530273438,1.226959228515625,0.2960205078125
1.2499618530273438,1.2451553344726562,0.3389739990234375
1.2499618530273438,1.2499618530273438,0.308074951171875
1.2499618530273438,1.2499618530273438,0.3948211669921875
1.2499618530273438,1.2499618530273438,0.34637451171875
1.2499618530273438,1.2499618530273438,0.230712890625
1.2499618530273438,1.2499618530273438,0.181121826171875
1.2499618530273438,1.2499618530273438,0.178680419921875
1.2499618530273438,1.2499618530273438,0.0144195556640625
1.2499618530273438,1.2499618530273438,-0.1801300048828125
1.2499618530273438,1.2499618530273438,-0.1869964599609375
1.2499618530273438,1.2499618530273438,-0.303497314453125
1.2499618530273438,1.2499618530273438,-0.441741943359375
1.2499618530273438,1.2499618530273438,-0.4515838623046875
1.2499618530273438,1.2499618530273438,-0.38848876953125
1.2499618530273438,1.2499618530273438,-0.4547882080078125
1.2499618530273438,1.2499618530273438,-0.4084014892578125
1.2499618530273438,1.2499618530273438,-0.2507781982421875
1.2499618530273438,1.2499618530273438,-0.3018951416015625
1.2499618530273438,1.2499618530273438,-0.1461029052734375
1.2499618530273438,1.2499618530273438,-0.111083984375
1.2499618530273438,1.2499618530273438,-0.0672149658203125
1.2499618530273438,1.2499618530273438,-0.038909912109375
1.2499618530273438,1.2499618530273438,0.128021240234375
1.2499618530273438,1.2499618530273438,0.1992034912109375
1.2499618530273438,1.2499618530273438,0.2716827392578125
1.2499618530273438,1.2499618530273438,0.216522216796875
1.2499618530273438,1.2499618530273438,0.2875518798828125
1.2499618530273438,1.2499618530273438,0.25177001953125
1.2499618530273438,1.2499618530273438,0.25421142578125
1.2499618530273438,1.1983108520507812,0.3026580810546875
1.2499618530273438,1.2470626831054688,0.2337646484375
1.2499618530273438,1.2499618530273438,0.3379058837890625
1.2499618530273438,1.2499618530273438,0.3885650634765625
1.2499618530273438,1.2499618530273438,0.337677001953125
1.2499618530273438,1.2499618530273438,0.153961181640625
1.2499618530273438,1.2499618530273438,0.1251220703125
1.2499618530273438,1.2499618530273438,0.2057647705078125
1.2499618530273438,1.2499618530273438,-0.052947998046875
1.2499618530273438,1.2499618530273438,-0.209808349609375
1.2499618530273438,1.2499618530273438,-0.187530517578125
1.2499618530273438,1.2499618530273438,-0.188751220703125
1.2499618530273438,1.2499618530273438,-0.4199981689453125
1.2499618530273438,1.2499618530273438,-0.45745849609375
1.2499618530273438,1.2499618530273438,-0.4206085205078125
1.2298202514648438,1.2499618530273438,-0.44586181640625
1.2499618530273438,1.2499618530273438,-0.36956787109375
1.2499618530273438,1.2499618530273438,-0.2642822265625
1.2499618530273438,1.2499618530273438,-0.3093719482421875
1.2499618530273438,1.2499618530273438,-0.159912109375
1.2499618530273438,1.2499618530273438,-0.064239501953125
1.2499618530273438,1.2499618530273438,0.0089263916015625
1.2499618530273438,1.2499618530273438,-0.0136566162109375
1.2499618530273438,1.2499618530273438,0.0787353515625
1.2499618530273438,1.2499618530273438,0.1902008056640625
1.2499618530273438,1.2499618530273438,0.1392364501953125
1.2499618530273438,1.2499618530273438,0.2323150634765625
1.2499618530273438,1.2499618530273438,0.3246307373046875
1.2499618530273438,1.2499618530273438,0.2658843994140625
1.2499618530273438,1.2499618530273438,0.242462158203125
1.2236404418945312,1.1774444580078125,0.291595458984375
1.2499618530273438,1.2499618530273438,0.3351593017578125
1.2499618530273438,1.2499618530273438,0.3606414794921875
1.2499618530273438,1.2499618530273438,0.3857421875
1.2499618530273438,1.2499618530273438,0.3595733642578125
1.2499618530273438,1.2499618530273438,0.2445220947265625
1.2499618530273438,1.2499618530273438,0.083770751953125
1.2499618530273438,1.2499618530273438,0.1025390625
1.2499618530273438,1.2499618530273438,-0.0679779052734375
1.2499618530273438,1.2499618530273438,-0.231475830078125
1.2499618530273438,1.2499618530273438,-0.1290130615234375
1.2499618530273438,1.2499618530273438,-0.2977752685546875
1.2499618530273438,1.2499618530273438,-0.457916259765625
1.2499618530273438,1.2499618530273438,-0.4611968994140625
1.2499618530273438,1.2499618530273438,-0.42144775390625
1.1809539794921875,1.2258529663085938,-0.4734039306640625
1.2499618530273438,1.2499618530273438,-0.369720458984375
1.2499618530273438,1.2499618530273438,-0.3033447265625
1.2499618530273438,1.2499618530273438,-0.32073974609375
1.2499618530273438,1.2499618530273438,-0.1044464111328125
1.2499618530273438,1.2499618530273438,-0.0965118408203125
1.2499618530273438,1.2499618530273438,-0.06500244140625
1.2499618530273438,1.2499618530273438,0.0598907470703125
1.2499618530273438,1.2499618530273438,0.2011871337890625
1.2499618530273438,1.2499618530273438,0.3108978271484375
1.2499618530273438,1.2499618530273438,0.1862335205078125
1.2499618530273438,1.2499618530273438,0.2690887451171875
1.2499618530273438,1.2499618530273438,0.2774810791015625
1.2499618530273438,1.2499618530273438,0.27862548828125
1.2499618530273438,1.2499618530273438,0.2419281005859375
1.2112045288085938,1.1511611938476562,0.3180694580078125
1.2499618530273438,1.2499618530273438,0.3742218017578125
1.2499618530273438,1.2499618530273438,0.29998779296875
1.2499618530273438,1.2499618530273438,0.3630828857421875
1.2499618530273438,1.2499618530273438,0.333709716796875
1.2499618530273438,1.2499618530273438,0.244140625
1.2499618530273438,1.2499618530273438,0.2001190185546875
1.2499618530273438,1.2499618530273438,0.1682281494140625
1.2499618530273438,1.2499618530273438,-0.1007080078125
1.2499618530273438,1.2499618530273438,-0.1441192626953125
1.2499618530273438,1.2499618530273438,-0.1717376708984375
1.2499618530273438,1.2499618530273438,-0.261993408203125
1.2499618530273438,1.2499618530273438,-0.41351318359375
1.2499618530273438,1.2499618530273438,-0.4616546630859375
1.2499618530273438,1.2499618530273438,-0.430450439453125
1.1493682861328125,1.1939239501953125,-0.4871368408203125
1.2499618530273438,1.2499618530273438,-0.39947509765625
1.2499618530273438,1.2499618530273438,-0.313720703125
1.2499618530273438,1.2499618530273438,-0.2918243408203125
1.2499618530273438,1.2499618530273438,-0.1763153076171875
1.2499618530273438,1.2499618530273438,-0.106658935546875
1.2499618530273438,1.2499618530273438,-0.0510406494140625
1.2499618530273438,1.2499618530273438,0.0446319580078125
1.2499618530273438,1.2499618530273438,0.1264190673828125
1.2499618530273438,1.2499618530273438,0.2077484130859375
1.2499618530273438,1.2499618530273438,0.22552490234375
1.2499618530273438,1.2499618530273438,0.28594970703125
1.2499618530273438,1.2499618530273438,0.2745819091796875
1.2499618530273438,1.2499618530273438,0.324554443359375
1.2499618530273438,1.2499618530273438,0.2477264404296875
1.17706298828125,1.1248397827148438,0.2761077880859375
1.2499618530273438,1.2499618530273438,0.26123046875
1.2499618530273438,1.2499618530273438,0.2518463134765625
1.2499618530273438,1.2499618530273438,0.441131591796875
1.2499618530273438,1.2499618530273438,0.29693603515625
1.2499618530273438,1.2499618530273438,0.1694488525390625
1.2499618530273438,1.2499618530273438,0.1830291748046875
1.2499618530273438,1.2499618530273438,0.139923095703125
1.2499618530273438,1.2499618530273438,-0.1000213623046875
1.2499618530273438,1.2499618530273438,-0.138092041015625
1.2499618530273438,1.2499618530273438,-0.208892822265625
1.2499618530273438,1.2499618530273438,-0.2622222900390625
1.2499618530273438,1.2499618530273438,-0.411834716796875
1.2499618530273438,1.2499618530273438,-0.4827117919921875
1.2499618530273438,1.2499618530273438,-0.4097747802734375
1.0984420776367188,1.1627197265625,-0.49652099609375
1.2499618530273438,1.2499618530273438,-0.3363800048828125
1.2499618530273438,1.2499618530273438,-0.26031494140625
1.2499618530273438,1.2499618530273438,-0.2616119384765625
1.2499618530273438,1.2499618530273438,-0.272674560546875
1.2499618530273438,1.2499618530273438,-0.029449462890625
1.2499618530273438,1.2499618530273438,-0.009765625
1.2499618530273438,1.2499618530273438,0.005340576171875
1.2499618530273438,1.2499618530273438,0.1514434814453125
1.2499618530273438,1.2499618530273438,0.2349853515625
1.2499618530273438,1.2499618530273438,0.1507568359375
1.2499618530273438,1.2499618530273438,0.2439117431640625
1.2499618530273438,1.2499618530273438,0.24017333984375
1.2499618530273438,1.2499618530273438,0.31463623046875
1.2499618530273438,1.2499618530273438,0.2248382568359375
1.1777496337890625,1.0995864868164062,0.281982421875
1.2499618530273438,1.2499618530273438,0.2381134033203125
1.2499618530273438,1.2499618530273438,0.2657318115234375
1.2499618530273438,1.2499618530273438,0.34759521484375
1.2499618530273438,1.2499618530273438,0.4180908203125
1.2499618530273438,1.2499618530273438,0.1737213134765625
1.2499618530273438,1.2499618530273438,0.2472686767578125
1.2499618530273438,1.2499618530273438,0.1120758056640625
1.2499618530273438,1.2499618530273438,-0.0754547119140625
1.2499618530273438,1.2499618530273438,-0.1171875
1.2499618530273438,1.2499618530273438,-0.1491546630859375
1.2499618530273438,1.2499618530273438,-0.2457427978515625
1.2499618530273438,1.2499618530273438,-0.43609619140625
1.2499618530273438,1.2499618530273438,-0.4012298583984375
1.2499618530273438,1.2499618530273438,-0.4405975341796875
1.0677337646484375,1.13800048828125,-0.49163818359375
1.2499618530273438,1.2499618530273438,-0.3597259521484375
1.2499618530273438,1.2499618530273438,-0.2713775634765625
1.2499618530273438,1.2499618530273438,-0.264892578125
1.2499618530273438,1.2499618530273438,-0.233306884765625
1.2499618530273438,1.2499618530273438,0.006866455078125
1.2499618530273438,1.2499618530273438,-0.00457763671875
1.2499618530273438,1.2499618530273438,0.0354766845703125
1.2499618530273438,1.2499618530273438,0.23956298828125
1.2499618530273438,1.2499618530273438,0.1605987548828125
1.2499618530273438,1.2499618530273438,0.194244384765625
1.2499618530273438,1.2499618530273438,0.237274169921875
1.2499618530273438,1.2499618530273438,0.32623291015625
1.2499618530273438,1.2499618530273438,0.33294677734375
1.2499618530273438,1.2499618530273438,0.228729248046875
1.154632568359375,1.0813522338867188,0.28594970703125
1.2499618530273438,1.2499618530273438,0.30120849609375
1.2499618530273438,1.2499618530273438,0.324554443359375
1.2499618530273438,1.2499618530273438,0.410614013671875
1.2499618530273438,1.2499618530273438,0.27374267578125
1.2499618530273438,1.2499618530273438,0.229949951171875
1.2499618530273438,1.2499618530273438,0.1446533203125
1.2499618530273438,1.2499618530273438,0.11749267578125
1.2499618530273438,1.2499618530273438,-0.172271728515625
1.2499618530273438,1.2499618530273438,-0.145111083984375
1.2499618530273438,1.2499618530273438,-0.2136993408203125
1.2499618530273438,1.2499618530273438,-0.2642822265625
1.2499618530273438,1.2499618530273438,-0.4369354248046875
1.2499618530273438,1.2499618530273438,-0.4083251953125
1.2499618530273438,1.2499618530273438,-0.4157257080078125
1.0419464111328125,1.09527587890625,-0.4439544677734375
1.2499618530273438,1.2499618530273438,-0.345458984375
1.2499618530273438,1.2499618530273438,-0.3704071044921875
1.2499618530273438,1.2499618530273438,-0.32684326171875
1.2499618530273438,1.2499618530273438,-0.165557861328125
1.2499618530273438,1.2499618530273438,-0.1149749755859375
1.2499618530273438,1.2499618530273438,-0.086669921875
1.2499618530273438,1.2499618530273438,0.084381103515625
1.2499618530273438,1.2499618530273438,0.1629638671875
1.2499618530273438,1.2499618530273438,0.1831817626953125
1.2499618530273438,1.2499618530273438,0.162506103515625
1.2499618530273438,1.2499618530273438,0.1970672607421875
1.2499618530273438,1.2499618530273438,0.2417755126953125
1.2499618530273438,1.2499618530273438,0.2919769287109375
1.2499618530273438,1.2499618530273438,0.233001708984375
1.1244964599609375,1.0676956176757812,0.30517578125
1.2499618530273438,1.2499618530273438,0.288848876953125
1.2499618530273438,1.2499618530273438,0.2790069580078125
1.2499618530273438,1.2499618530273438,0.3493499755859375
1.2499618530273438,1.2499618530273438,0.25177001953125
1.2499618530273438,1.2499618530273438,0.3385162353515625
1.2499618530273438,1.2499618530273438,0.24139404296875
1.2499618530273438,1.2499618530273438,0.0716400146484375
1.2499618530273438,1.2499618530273438,-0.066986083984375
1.2499618530273438,1.2499618530273438,-0.1113128662109375
1.2499618530273438,1.2499618530273438,-0.1894378662109375
1.2499618530273438,1.2499618530273438,-0.321044921875
1.2499618530273438,1.2499618530273438,-0.4343414306640625
1.2499618530273438,1.2499618530273438,-0.45074462890625
1.2499618530273438,1.2499618530273438,-0.438995361328125
1.0326385498046875,1.0802459716796875,-0.4662322998046875
1.2499618530273438,1.2499618530273438,-0.341033935546875
1.2499618530273438,1.2499618530273438,-0.3273773193359375
1.2499618530273438,1.2499618530273438,-0.2431488037109375
1.2499618530273438,1.2499618530273438,-0.159149169921875
1.2499618530273438,1.2499618530273438,-0.040435791015625
1.2499618530273438,1.2499618530273438,-0.02655029296875
1.2499618530273438,1.2499618530273438,-0.0728607177734375
1.2499618530273438,1.2499618530273438,0.117340087890625
1.2499618530273438,1.2499618530273438,0.20263671875
1.2499618530273438,1.2499618530273438,0.220794677734375
1.2499618530273438,1.2499618530273438,0.261077880859375
1.2499618530273438,1.2499618530273438,0.243682861328125
1.2499618530273438,1.2499618530273438,0.2462005615234375
1.2499618530273438,1.2499618530273438,0.2259063720703125
1.0927963256835938,1.0284423828125,0.297698974609375
1.2499618530273438,1.2499618530273438,0.3615570068359375
1.2499618530273438,1.2499618530273438,0.303192138671875
1.2499618530273438,1.2499618530273438,0.4082489013671875
1.2499618530273438,1.2499618530273438,0.3018951416015625
1.2499618530273438,1.2499618530273438,0.290374755859375
1.2499618530273438,1.2499618530273438,0.18890380859375
1.2499618530273438,1.2499618530273438,0.130462646484375
1.2499618530273438,1.2499618530273438,-0.1390838623046875
1.2499618530273438,1.2499618530273438,-0.1264190673828125
1.2499618530273438,1.2499618530273438,-0.22857666015625
1.2499618530273438,1.2499618530273438,-0.274810791015625
1.2499618530273438,1.2499618530273438,-0.4335784912109375
1.2499618530273438,1.2499618530273438,-0.43365478515625
1.2499618530273438,1.2499618530273438,-0.4364013671875
1.0177993774414062,1.0837936401367188,-0.4759979248046875
1.2499618530273438,1.2499618530273438,-0.330657958984375
1.2499618530273438,1.2499618530273438,-0.2556610107421875
1.2499618530273438,1.2499618530273438,-0.367889404296875
1.2499618530273438,1.2499618530273438,-0.22216796875
1.2499618530273438,1.2499618530273438,0.001373291015625
1.2499618530273438,1.2499618530273438,-0.052032470703125
1.2499618530273438,1.2499618530273438,0.0029754638671875
1.2499618530273438,1.2499618530273438,0.1546478271484375
1.2499618530273438,1.2499618530273438,0.200347900390625
1.2499618530273438,1.2499618530273438,0.239715576171875
1.2499618530273438,1.2499618530273438,0.19989013671875
1.2499618530273438,1.2499618530273438,0.229949951171875
1.2499618530273438,1.2499618530273438,0.2637481689453125
1.2499618530273438,1.2499618530273438,0.2447509765625
1.0717010498046875,1.0101318359375,0.31646728515625
1.2499618530273438,1.2499618530273438,0.3265380859375
1.2499618530273438,1.2499618530273438,0.317840576171875
1.2499618530273438,1.2499618530273438,0.37353515625
1.2499618530273438,1.2499618530273438,0.323944091796875
1.2499618530273438,1.2499618530273438,0.1601409912109375
1.2499618530273438,1.2499618530273438,0.2487945556640625
1.2499618530273438,1.2499618530273438,0.092926025390625
1.2499618530273438,1.2499618530273438,-0.0284576416015625
1.2499618530273438,1.2499618530273438,-0.15777587890625
1.2499618530273438,1.2499618530273438,-0.15350341796875
1.2499618530273438,1.2499618530273438,-0.2660369873046875
1.2499618530273438,1.2499618530273438,-0.421142578125
1.2499618530273438,1.2499618530273438,-0.4943084716796875
1.2499618530273438,1.2499618530273438,-0.4367828369140625
0.998687744140625,1.0676193237304688,-0.4109954833984375
1.2499618530273438,1.2499618530273438,-0.40679931640625
1.2499618530273438,1.2499618530273438,-0.350494384765625
1.2499618530273438,1.2499618530273438,-0.305023193359375
1.2499618530273438,1.2499618530273438,-0.2508544921875
1.2499618530273438,1.2499618530273438,-0.050201416015625
1.2499618530273438,1.2499618530273438,0.014190673828125
1.2499618530273438,1.2499618530273438,0.0748443603515625
1.2499618530273438,1.2499618530273438,0.245513916015625
1.2499618530273438,1.2499618530273438,0.1705169677734375
1.2499618530273438,1.2499618530273438,0.2434539794921875
1.2499618530273438,1.2499618530273438,0.2175140380859375
1.2499618530273438,1.2499618530273438,0.2481842041015625
1.2499618530273438,1.2499618530273438,0.189361572265625
1.2499618530273438,1.2499618530273438,0.2280426025390625
1.0491180419921875,0.9914779663085938,0.2850341796875
1.2499618530273438,1.2499618530273438,0.275421142578125
1.2499618530273438,1.2499618530273438,0.359954833984375
1.2499618530273438,1.2499618530273438,0.4326629638671875
1.2499618530273438,1.2499618530273438,0.293426513671875
1.2499618530273438,1.2499618530273438,0.14495849609375
1.2499618530273438,1.2499618530273438,0.0647735595703125
1.2499618530273438,1.2499618530273438,0.10833740234375
1.2499618530273438,1.2499618530273438,-0.0911712646484375
1.2499618530273438,1.2499618530273438,-0.1561737060546875
1.2499618530273438,1.2499618530273438,-0.2465057373046875
1.2499618530273438,1.2499618530273438,-0.29632568359375
1.2499618530273438,1.2499618530273438,-0.410919189453125
1.2499618530273438,1.2499618530273438,-0.366363525390625
1.2499618530273438,1.2499618530273438,-0.4505157470703125
0.995941162109375,1.0657119750976562,-0.4996490478515625
1.2499618530273438,1.2499618530273438,-0.3354644775390625
1.2499618530273438,1.2499618530273438,-0.2489471435546875
1.2499618530273438,1.2499618530273438,-0.301971435546875
1.2499618530273438,1.2499618530273438,-0.2194976806640625
1.2499618530273438,1.2499618530273438,-0.147552490234375
1.2499618530273438,1.2499618530273438,0.0
1.2499618530273438,1.2499618530273438,-0.0490570068359375
1.2499618530273438,1.2499618530273438,0.176849365234375
1.2499618530273438,1.2499618530273438,0.2079010009765625
1.2499618530273438,1.2499618530273438,0.2083587646484375
1.2499618530273438,1.2499618530273438,0.2378082275390625
1.2499618530273438,1.2499618530273438,0.249786376953125
1.2499618530273438,1.2499618530273438,0.2629852294921875
1.2499618530273438,1.2499618530273438,0.2423095703125
1.025390625,0.9760665893554688,0.2825927734375
1.2499618530273438,1.2499618530273438,0.2691650390625
1.2499618530273438,1.2499618530273438,0.2759552001953125
1.2499618530273438,1.2499618530273438,0.4512786865234375
1.2499618530273438,1.2499618530273438,0.2574920654296875
1.2499618530273438,1.2499618530273438,0.2146148681640625
1.2499618530273438,1.2499618530273438,0.194549560546875
1.2499618530273438,1.2499618530273438,0.1076507568359375
1.2499618530273438,1.2499618530273438,-0.1297760009765625
1.2499618530273438,1.2499618530273438,-0.131072998046875
1.2499618530273438,1.2499618530273438,-0.1947784423828125
1.2499618530273438,1.2499618530273438,-0.314178466796875
1.2499618530273438,1.2499618530273438,-0.437469482421875
1.2499618530273438,1.2499618530273438,-0.4393768310546875
1.2499618530273438,1.2499618530273438,-0.4560089111328125
0.9906768798828125,1.0474395751953125,-0.461273193359375
1.2499618530273438,1.2499618530273438,-0.344085693359375
1.2499618530273438,1.2499618530273438,-0.3237152099609375
1.2499618530273438,1.2499618530273438,-0.344696044921875
1.2499618530273438,1.2499618530273438,-0.12451171875
1.2499618530273438,1.2499618530273438,-0.103759765625
1.2499618530273438,1.2499618530273438,-0.0439453125
1.2499618530273438,1.2499618530273438,0.0441741943359375
1.2499618530273438,1.2499618530273438,0.1839447021484375
1.2499618530273438,1.2499618530273438,0.2310943603515625
1.2499618530273438,1.2499618530273438,0.142822265625
1.2499618530273438,1.2499618530273438,0.24383544921875
1.2499618530273438,1.2499618530273438,0.2361297607421875
1.2499618530273438,1.2499618530273438,0.297393798828125
1.2499618530273438,1.2499618530273438,0.2416229248046875
1.0197067260742188,0.9429550170898438,0.316314697265625
1.2499618530273438,1.2499618530273438,0.279388427734375
1.2499618530273438,1.2499618530273438,0.3261566162109375
1.2499618530273438,1.2499618530273438,0.2984619140625
1.2499618530273438,1.2499618530273438,0.3224945068359375
1.2499618530273438,1.2499618530273438,0.1416015625
1.2499618530273438,1.2499618530273438,0.196533203125
1.2499618530273438,1.2499618530273438,0.140533447265625
1.2499618530273438,1.2499618530273438,-0.06866455078125
1.2499618530273438,1.2499618530273438,-0.157928466796875
1.2499618530273438,1.2499618530273438,-0.236358642578125
1.2499618530273438,1.2499618530273438,-0.3102874755859375
1.2499618530273438,1.2499618530273438,-0.382232666015625
1.2499618530273438,1.2499618530273438,-0.4962921142578125
1.2499618530273438,1.2499618530273438,-0.469970703125
0.9703826904296875,1.0411453247070312,-0.4619598388671875
1.2499618530273438,1.2499618530273438,-0.354461669921875
1.2499618530273438,1.2499618530273438,-0.2944183349609375
1.2499618530273438,1.2499618530273438,-0.3214263916015625
1.2499618530273438,1.2499618530273438,-0.1700592041015625
1.2499618530273438,1.2499618530273438,0.0072479248046875
1.2499618530273438,1.2499618530273438,-0.073699951171875
1.2499618530273438,1.2499618530273438,-0.0518035888671875
1.2499618530273438,1.2499618530273438,0.23590087890625
1.2499618530273438,1.2499618530273438,0.2136993408203125
1.2499618530273438,1.2499618530273438,0.178375244140625
1.2499618530273438,1.2499618530273438,0.2799224853515625
1.2499618530273438,1.2499618530273438,0.265960693359375
1.2499618530273438,1.2499618530273438,0.2483367919921875
1.2499618530273438,1.2499618530273438,0.183868408203125
1.0002517700195312,0.9218978881835938,0.3221893310546875
1.2499618530273438,1.2499618530273438,0.255126953125
1.2499618530273438,1.2499618530273438,0.33966064453125
1.2499618530273438,1.2499618530273438,0.3617095947265625
1.2499618530273438,1.2499618530273438,0.3086090087890625
1.2499618530273438,1.2499618530273438,0.229949951171875
1.2499618530273438,1.2499618530273438,0.2198028564453125
1.2499618530273438,1.2499618530273438,0.1398468017578125
1.2499618530273438,1.2499618530273438,-0.1708984375
1.2499618530273438,1.2499618530273438,-0.1175689697265625
1.2499618530273438,1.2499618530273438,-0.1259613037109375
1.2499618530273438,1.2499618530273438,-0.3510284423828125
1.2499618530273438,1.2499618530273438,-0.458831787109375
1.2499618530273438,1.2499618530273438,-0.499725341796875
1.2499618530273438,1.2499618530273438,-0.4320526123046875
0.9564971923828125,1.018524169921875,-0.4402923583984375
1.2499618530273438,1.2499618530273438,-0.3487396240234375
1.2499618530273438,1.2499618530273438,-0.2974700927734375
1.2499618530273438,1.2499618530273438,-0.3444671630859375
1.2499618530273438,1.2499618530273438,-0.12664794921875
1.2499618530273438,1.2499618530273438,0.0962066650390625
1.2499618530273438,1.2499618530273438,0.0257110595703125
1.2499618530273438,1.2499618530273438,-0.0058746337890625
1.2499618530273438,1.2499618530273438,0.1461029052734375
1.2499618530273438,1.2499618530273438,0.1749420166015625
1.2499618530273438,1.2499618530273438,0.176544189453125
1.2499618530273438,1.2499618530273438,0.2268218994140625
1.2499618530273438,1.2499618530273438,0.3006744384765625
1.2499618530273438,1.2499618530273438,0.2722930908203125
1.2499618530273438,1.2499618530273438,0.2374267578125
0.9948348999023438,0.9291458129882812,0.3668212890625
1.2499618530273438,1.2499618530273438,0.314483642578125
1.2499618530273438,1.2499618530273438,0.3020477294921875
1.2499618530273438,1.2499618530273438,0.4199981689453125
1.2499618530273438,1.2499618530273438,0.333251953125
1.2499618530273438,1.2499618530273438,0.2388763427734375
1.2499618530273438,1.2499618530273438,0.1802825927734375
1.2499618530273438,1.2499618530273438,0.1795196533203125
1.2499618530273438,1.2499618530273438,-0.0890350341796875
1.2499618530273438,1.2499618530273438,-0.1220703125
1.2499618530273438,1.2499618530273438,-0.1686859130859375
1.2499618530273438,1.2499618530273438,-0.33660888671875
1.2499618530273438,1.2499618530273438,-0.4465484619140625
1.2499618530273438,1.2499618530273438,-0.51849365234375
1.2499618530273438,1.2499618530273438,-0.4688262939453125
0.9514999389648438,0.998687744140625,-0.4742431640625
1.2499618530273438,1.2499618530273438,-0.34149169921875
1.2499618530273438,1.2499618530273438,-0.289154052734375
1.2499618530273438,1.2499618530273438,-0.329742431640625
1.2499618530273438,1.2499618530273438,-0.1976776123046875
1.2499618530273438,1.2499618530273438,-0.03997802734375
1.2499618530273438,1.2499618530273438,-0.0617218017578125
1.2499618530273438,1.2499618530273438,0.0283050537109375
1.2499618530273438,1.2499618530273438,0.2133941650390625
1.2499618530273438,1.2499618530273438,0.2262115478515625
1.2499618530273438,1.2499618530273438,0.283203125
1.2499618530273438,1.2499618530273438,0.3107452392578125
1.2499618530273438,1.2499618530273438,0.2561187744140625
1.2499618530273438,1.2499618530273438,0.2524566650390625
1.2499618530273438,1.2499618530273438,0.2495574951171875
0.9472274780273438,0.9229660034179688,0.3333282470703125
1.2499618530273438,1.2499618530273438,0.2361297607421875
1.2499618530273438,1.2499618530273438,0.39398193359375
1.2499618530273438,1.2499618530273438,0.34881591796875
1.2499618530273438,1.2499618530273438,0.26336669921875
1.2499618530273438,1.2499618530273438,0.26092529296875
1.2499618530273438,1.2499618530273438,0.127410888671875
1.2499618530273438,1.2499618530273438,0.0366973876953125
1.2499618530273438,1.2499618530273438,-0.1025390625
1.2499618530273438,1.2499618530273438,-0.1297760009765625
1.2499618530273438,1.2499618530273438,-0.2162933349609375
1.2499618530273438,1.2499618530273438,-0.38543701171875
1.2499618530273438,1.2499618530273438,-0.507965087890625
1.2499618530273438,1.2499618530273438,-0.4327392578125
1.2499618530273438,1.2499618530273438,-0.4582977294921875
0.9234237670898438,0.9804153442382812,-0.463714599609375
1.2499618530273438,1.2499618530273438,-0.2942657470703125
1.2499618530273438,1.2499618530273438,-0.2202606201171875
1.2499618530273438,1.2499618530273438,-0.3466033935546875
1.2499618530273438,1.2499618530273438,-0.16632080078125
1.2499618530273438,1.2499618530273438,-0.09521484375
1.2499618530273438,1.2499618530273438,-0.1285552978515625
1.2499618530273438,1.2499618530273438,0.0551605224609375
1.2499618530273438,1.2499618530273438,0.1956939697265625
1.2499618530273438,1.2499618530273438,0.186920166015625
1.2499618530273438,1.2499618530273438,0.1485443115234375
1.2499618530273438,1.2499618530273438,0.26947021484375
1.2499618530273438,1.2499618530273438,0.298614501953125
1.2499618530273438,1.2499618530273438,0.25177001953125
1.2499618530273438,1.2499618530273438,0.2056121826171875
0.9828567504882812,0.922393798828125,0.3086090087890625
1.2499618530273438,1.2499618530273438,0.2942657470703125
1.2499618530273438,1.2499618530273438,0.227203369140625
1.2499618530273438,1.2499618530273438,0.3682708740234375
1.2499618530273438,1.2499618530273438,0.315399169921875
1.2499618530273438,1.2499618530273438,0.1674652099609375
1.2499618530273438,1.2499618530273438,0.207366943359375
1.2499618530273438,1.2499618530273438,0.16815185546875
1.2499618530273438,1.2499618530273438,-0.153656005859375
1.2499618530273438,1.2499618530273438,-0.1273345947265625
1.2499618530273438,1.2499618530273438,-0.157623291015625
1.2499618530273438,1.2499618530273438,-0.4172515869140625
1.2499618530273438,1.2499618530273438,-0.402069091796875
1.2499618530273438,1.2499618530273438,-0.4339599609375
1.2499618530273438,1.2499618530273438,-0.4290771484375
0.9064102172851562,0.96527099609375,-0.4833984375
1.2499618530273438,1.2499618530273438,-0.388031005859375
1.2499618530273438,1.2499618530273438,-0.3220367431640625
1.2499618530273438,1.2499618530273438,-0.312957763671875
1.2499618530273438,1.2499618530273438,-0.1813507080078125
1.2499618530273438,1.2499618530273438,0.0118255615234375
1.2499618530273438,1.2499618530273438,-0.05279541015625
1.2499618530273438,1.2499618530273438,0.0803375244140625
1.2499618530273438,1.2499618530273438,0.206451416015625
1.2499618530273438,1.2499618530273438,0.277099609375
1.2499618530273438,1.2499618530273438,0.2350616455078125
1.2499618530273438,1.2499618530273438,0.259552001953125
1.2499618530273438,1.2499618530273438,0.3063201904296875
1.2499618530273438,1.2499618530273438,0.31463623046875
1.2499618530273438,1.2499618530273438,0.24169921875
0.9520721435546875,0.9153366088867188,0.3250885009765625
1.2499618530273438,1.2499618530273438,0.2794647216796875
1.2499618530273438,1.2499618530273438,0.2184295654296875
1.2499618530273438,1.2499618530273438,0.3862762451171875
1.2499618530273438,1.2499618530273438,0.3348541259765625
1.2499618530273438,1.2499618530273438,0.2265167236328125
1.2499618530273438,1.2499618530273438,0.1645660400390625
1.2499618530273438,1.2499618530273438,0.1010894775390625
1.2499618530273438,1.2499618530273438,-0.1340484619140625
1.2499618530273438,1.2499618530273438,-0.125732421875
1.2499618530273438,1.2499618530273438,-0.166168212890625
1.2499618530273438,1.2499618530273438,-0.3216552734375
1.2499618530273438,1.2499618530273438,-0.3658294677734375
1.2499618530273438,1.2499618530273438,-0.4178619384765625
1.2499618530273438,1.2499618530273438,-0.40557861328125
0.8989715576171875,0.9481048583984375,-0.437469482421875
1.2499618530273438,1.2499618530273438,-0.3347015380859375
1.2499618530273438,1.2499618530273438,-0.33355712890625
1.2499618530273438,1.2499618530273438,-0.319366455078125
1.2499618530273438,1.2499618530273438,-0.17608642578125
1.2499618530273438,1.2499618530273438,0.0148773193359375
1.2499618530273438,1.2499618530273438,-0.087738037109375
1.2499618530273438,1.2499618530273438,0.0273895263671875
1.2499618530273438,1.2499618530273438,0.2236175537109375
1.2499618530273438,1.2499618530273438,0.2399444580078125
1.2499618530273438,1.2499618530273438,0.135498046875
1.2499618530273438,1.2499618530273438,0.3045654296875
1.2499618530273438,1.2499618530273438,0.29083251953125
1.2499618530273438,1.2499618530273438,0.2574920654296875
1.2499618530273438,1.2499618530273438,0.16632080078125
0.9571075439453125,0.91156005859375,0.3308868408203125
1.2499618530273438,1.2499618530273438,0.2716064453125
1.2499618530273438,1.2499618530273438,0.33203125
1.2499618530273438,1.2499618530273438,0.4625701904296875
1.2499618530273438,1.2499618530273438,0.230712890625
1.2499618530273438,1.2499618530273438,0.219268798828125
1.2499618530273438,1.2499618530273438,0.1526641845703125
1.2499618530273438,1.2499618530273438,0.1663970947265625
1.2499618530273438,1.2499618530273438,-0.206298828125
1.2499618530273438,1.2499618530273438,-0.221710205078125
1.2499618530273438,1.2499618530273438,-0.2111053466796875
1.2499618530273438,1.2499618530273438,-0.34423828125
1.2499618530273438,1.2499618530273438,-0.393524169921875
1.2499618530273438,1.2499618530273438,-0.5016326904296875
1.2499618530273438,1.2499618530273438,-0.462799072265625
0.9002304077148438,0.9691238403320312,-0.462646484375
1.2499618530273438,1.2499618530273438,-0.2341461181640625
1.2499618530273438,1.2499618530273438,-0.2227020263671875
1.2499618530273438,1.2499618530273438,-0.3205108642578125
1.2499618530273438,1.2499618530273438,-0.1470947265625
1.2499618530273438,1.2499618530273438,0.0228118896484375
1.2499618530273438,1.2499618530273438,-0.0638580322265625
1.2499618530273438,1.2499618530273438,0.0035858154296875
1.2499618530273438,1.2499618530273438,0.2054595947265625
1.2499618530273438,1.2499618530273438,0.2397918701171875
1.2499618530273438,1.2499618530273438,0.208587646484375
1.2499618530273438,1.2499618530273438,0.317535400390625
1.2499618530273438,1.2499618530273438,0.3063201904296875
1.2499618530273438,1.2499618530273438,0.287322998046875
1.2499618530273438,1.2499618530273438,0.247344970703125
0.9615707397460938,0.8916473388671875,0.347137451171875
1.2499618530273438,1.2499618530273438,0.247802734375
1.2499618530273438,1.2499618530273438,0.2878570556640625
1.2499618530273438,1.2499618530273438,0.372772216796875
1.2499618530273438,1.2499618530273438,0.372161865234375
1.2499618530273438,1.2499618530273438,0.20477294921875
1.2499618530273438,1.2499618530273438,0.2574920654296875
1.2499618530273438,1.2499618530273438,0.0725555419921875
1.2499618530273438,1.2499618530273438,-0.1715087890625
1.2499618530273438,1.2499618530273438,-0.161590576171875
1.2499618530273438,1.2499618530273438,-0.1996612548828125
1.2499618530273438,1.2499618530273438,-0.2794647216796875
1.2499618530273438,1.2499618530273438,-0.39886474609375
1.2499618530273438,1.2499618530273438,-0.42572021484375
1.2499618530273438,1.2499618530273438,-0.4015350341796875
0.8707046508789062,0.9563827514648438,-0.4986572265625
1.2499618530273438,1.2499618530273438,-0.2989959716796875
1.2499618530273438,1.2499618530273438,-0.2490234375
1.2499618530273438,1.2499618530273438,-0.31768798828125
1.2499618530273438,1.2499618530273438,-0.1796722412109375
1.2499618530273438,1.2499618530273438,-0.0867462158203125
1.2499618530273438,1.2499618530273438,-0.059051513671875
1.2499618530273438,1.2499618530273438,-0.0502777099609375
1.2499618530273438,1.2499618530273438,0.2159881591796875
1.2499618530273438,1.2499618530273438,0.1917266845703125
1.2499618530273438,1.2499618530273438,0.1833343505859375
1.2499618530273438,1.2499618530273438,0.2136993408203125
1.2499618530273438,1.2499618530273438,0.2783966064453125
1.2499618530273438,1.2499618530273438,0.2667236328125
1.2499618530273438,1.2499618530273438,0.222320556640625
0.9339141845703125,0.8890914916992188,0.426483154296875
1.2499618530273438,1.2499618530273438,0.2771759033203125
1.2499618530273438,1.2499618530273438,0.3037261962890625
1.2499618530273438,1.2499618530273438,0.400390625
1.2499618530273438,1.2499618530273438,0.282440185546875
1.2499618530273438,1.2499618530273438,0.03814697265625
1.2499618530273438,1.2499618530273438,0.161590576171875
1.2499618530273438,1.2499618530273438,0.0589752197265625
1.2499618530273438,1.2499618530273438,-0.13885498046875
1.2499618530273438,1.2499618530273438,-0.163726806640625
1.2499618530273438,1.2499618530273438,-0.1653289794921875
1.2499618530273438,1.2499618530273438,-0.367431640625
1.2499618530273438,1.2499618530273438,-0.4376983642578125
1.2499618530273438,1.2499618530273438,-0.44219970703125
1.2499618530273438,1.2499618530273438,-0.4274749755859375
0.8883285522460938,0.9437179565429688,-0.503692626953125
1.2499618530273438,1.2499618530273438,-0.264739990234375
1.2499618530273438,1.2499618530273438,-0.265655517578125
1.2499618530273438,1.2499618530273438,-0.2791595458984375
1.2499618530273438,1.2499618530273438,-0.0896453857421875
1.2499618530273438,1.2499618530273438,-0.0101470947265625
1.2499618530273438,1.2499618530273438,-0.0733184814453125
1.2499618530273438,1.2499618530273438,-0.02166748046875
1.2499618530273438,1.2499618530273438,0.186309814453125
1.2499618530273438,1.2499618530273438,0.1699066162109375
1.2499618530273438,1.2499618530273438,0.1840972900390625
1.2499618530273438,1.2499618530273438,0.3401947021484375
1.2499618530273438,1.2499618530273438,0.289764404296875
1.2499618530273438,1.2499618530273438,0.2292633056640625
1.2499618530273438,1.2499618530273438,0.2249908447265625
0.9166717529296875,0.8673858642578125,0.3606414794921875
1.2499618530273438,1.2499618530273438,0.21026611328125
1.2499618530273438,1.2499618530273438,0.3662109375
1.2499618530273438,1.2499618530273438,0.3951263427734375
1.2499618530273438,1.2499618530273438,0.30242919921875
1.2499618530273438,1.2499618530273438,0.0536346435546875
1.2499618530273438,1.2499618530273438,0.15655517578125
1.2499618530273438,1.2499618530273438,0.1195526123046875
1.2499618530273438,1.2499618530273438,-0.1987457275390625
1.2499618530273438,1.2499618530273438,-0.1918792724609375
1.2499618530273438,1.2499618530273438,-0.123443603515625
1.2499618530273438,1.2499618530273438,-0.3498077392578125
1.2499618530273438,1.2499618530273438,-0.4015350341796875
1.2499618530273438,1.2499618530273438,-0.4004669189453125
1.2499618530273438,1.2499618530273438,-0.458831787109375
0.895538330078125,0.9267044067382812,-0.4611968994140625
1.2499618530273438,1.2499618530273438,-0.264129638671875
1.2499618530273438,1.2499618530273438,-0.2866363525390625
1.2499618530273438,1.2499618530273438,-0.298614501953125
1.2499618530273438,1.2499618530273438,-0.154876708984375
1.2499618530273438,1.2499618530273438,0.0052642822265625
1.2499618530273438,1.2499618530273438,-0.0213623046875
1.2499618530273438,1.2499618530273438,0.0022125244140625
1.2499618530273438,1.2499618530273438,0.1769256591796875
1.2499618530273438,1.2499618530273438,0.223541259765625
1.2499618530273438,1.2499618530273438,0.274810791015625
1.2499618530273438,1.2499618530273438,0.222625732421875
1.2499618530273438,1.2499618530273438,0.2379608154296875
1.2499618530273438,1.2499618530273438,0.27862548828125
1.2499618530273438,1.2499618530273438,0.23406982421875
0.8988571166992188,0.84014892578125,0.35125732421875
1.2499618530273438,1.2499618530273438,0.26885986328125
1.2499618530273438,1.2499618530273438,0.3595733642578125
1.2499618530273438,1.2499618530273438,0.384368896484375
1.2499618530273438,1.2499618530273438,0.2588653564453125
1.2499618530273438,1.2499618530273438,0.2677154541015625
1.2499618530273438,1.2499618530273438,0.23651123046875
1.2499618530273438,1.2499618530273438,-0.0138092041015625
1.2499618530273438,1.2499618530273438,-0.1531982421875
1.2499618530273438,1.2499618530273438,-0.131683349609375
1.2499618530273438,1.2499618530273438,-0.17578125
1.2499618530273438,1.2499618530273438,-0.3995513916015625
1.2499618530273438,1.2499618530273438,-0.3678131103515625
1.2499618530273438,1.2499618530273438,-0.454864501953125
1.2499618530273438,1.2499618530273438,-0.47119140625
0.8956146240234375,0.9571075439453125,-0.4531097412109375
1.2499618530273438,1.2499618530273438,-0.276336669921875
1.2499618530273438,1.2499618530273438,-0.237579345703125
1.2499618530273438,1.2499618530273438,-0.3073883056640625
1.2499618530273438,1.2499618530273438,-0.0299835205078125
1.2499618530273438,1.2499618530273438,-0.039215087890625
1.2499618530273438,1.2499618530273438,-0.1342010498046875
1.2499618530273438,1.2499618530273438,0.090789794921875
1.2499618530273438,1.2499618530273438,0.29876708984375
1.2499618530273438,1.2499618530273438,0.214996337890625
1.2499618530273438,1.2499618530273438,0.15838623046875
1.2499618530273438,1.2499618530273438,0.32073974609375
1.2499618530273438,1.2499618530273438,0.21636962890625
1.2499618530273438,1.2499618530273438,0.2484893798828125
1.2499618530273438,1.2499618530273438,0.2703857421875
0.89874267578125,0.8282470703125,0.363616943359375
1.2499618530273438,1.2499618530273438,0.268096923828125
1.2499618530273438,1.2499618530273438,0.3204345703125
1.2499618530273438,1.2499618530273438,0.4327392578125
1.2499618530273438,1.2499618530273438,0.2411651611328125
1.2499618530273438,1.2499618530273438,0.1128387451171875
1.2499618530273438,1.2499618530273438,0.2374267578125
1.2499618530273438,1.2499618530273438,0.171966552734375
1.2499618530273438,1.2499618530273438,-0.1567840576171875
1.2499618530273438,1.2499618530273438,-0.175933837890625
1.2499618530273438,1.2499618530273438,-0.1346588134765625
1.2499618530273438,1.2499618530273438,-0.38604736328125
1.2499618530273438,1.2499618530273438,-0.41595458984375
1.2499618530273438,1.2499618530273438,-0.4172515869140625
1.2499618530273438,1.2499618530273438,-0.4461669921875
0.8856582641601562,0.9796905517578125,-0.4711151123046875
1.2499618530273438,1.2499618530273438,-0.276641845703125
1.2499618530273438,1.2499618530273438,-0.2442169189453125
1.2499618530273438,1.2499618530273438,-0.2630615234375
1.2499618530273438,1.2499618530273438,-0.2046966552734375
1.2499618530273438,1.2499618530273438,-0.0017547607421875
1.2499618530273438,1.2499618530273438,-0.0672149658203125
1.2499618530273438,1.2499618530273438,-0.03387451171875
1.2499618530273438,1.2499618530273438,0.2027130126953125
1.2499618530273438,1.2499618530273438,0.2069091796875
1.2499618530273438,1.2499618530273438,0.1749420166015625
1.2499618530273438,1.2499618530273438,0.2337646484375
1.2499618530273438,1.2499618530273438,0.2142333984375
1.2499618530273438,1.2499618530273438,0.2761077880859375
1.2499618530273438,1.2499618530273438,0.2272796630859375
0.921173095703125,0.8464813232421875,0.3131103515625
1.2499618530273438,1.2499618530273438,0.254364013671875
1.2499618530273438,1.2499618530273438,0.2875518798828125
1.2499618530273438,1.2499618530273438,0.419921875
1.2499618530273438,1.2499618530273438,0.26123046875
1.2499618530273438,1.2499618530273438,0.1619720458984375
1.2499618530273438,1.2499618530273438,0.1776123046875
1.2499618530273438,1.2499618530273438,0.1050567626953125
1.2499618530273438,1.2499618530273438,-0.1486968994140625
1.2499618530273438,1.2499618530273438,-0.15838623046875
1.2499618530273438,1.2499618530273438,-0.197296142578125
1.2499618530273438,1.2499618530273438,-0.395965576171875
1.2499618530273438,1.2499618530273438,-0.3857421875
1.2499618530273438,1.2499618530273438,-0.4705810546875
1.2499618530273438,1.2499618530273438,-0.4538726806640625
0.9067535400390625,0.966339111328125,-0.4567718505859375
1.2499618530273438,1.2499618530273438,-0.286712646484375
1.2499618530273438,1.2499618530273438,-0.3066253662109375
1.2499618530273438,1.2499618530273438,-0.266571044921875
1.2499618530273438,1.2499618530273438,-0.1332855224609375
1.2499618530273438,1.2499618530273438,0.02166748046875
1.2499618530273438,1.2499618530273438,-0.05584716796875
1.2499618530273438,1.2499618530273438,-0.021209716796875
1.2499618530273438,1.2499618530273438,0.2197265625
1.2499618530273438,1.2499618530273438,0.1731109619140625
1.2499618530273438,1.2499618530273438,0.1406097412109375
1.2499618530273438,1.2499618530273438,0.2436065673828125
1.2499618530273438,1.2499618530273438,0.2748870849609375
1.2499618530273438,1.2499618530273438,0.2713775634765625
1.2499618530273438,1.2499618530273438,0.2410125732421875
0.9046173095703125,0.8660507202148438,0.322418212890625
1.2499618530273438,1.2499618530273438,0.2605438232421875
1.2499618530273438,1.2499618530273438,0.3153228759765625
1.2499618530273438,1.2499618530273438,0.3647613525390625
1.2499618530273438,1.2499618530273438,0.2414703369140625
1.2499618530273438,1.2499618530273438,0.204925537109375
1.2499618530273438,1.2499618530273438,0.199432373046875
1.2499618530273438,1.2499618530273438,0.0809478759765625
1.2499618530273438,1.2499618530273438,-0.12237548828125
1.2499618530273438,1.2499618530273438,-0.14434814453125
1.2499618530273438,1.2499618530273438,-0.1639556884765625
1.2499618530273438,1.2499618530273438,-0.382843017578125
1.2499618530273438,1.2499618530273438,-0.42510986328125
1.2499618530273438,1.2499618530273438,-0.4283905029296875
1.2499618530273438,1.2499618530273438,-0.4329681396484375
0.9228515625,0.965576171875,-0.457916259765625
1.2499618530273438,1.2499618530273438,-0.309600830078125
1.2499618530273438,1.2499618530273438,-0.26031494140625
1.2499618530273438,1.2499618530273438,-0.2779388427734375
1.2499618530273438,1.2499618530273438,-0.067138671875
1.2499618530273438,1.2499618530273438,0.0839996337890625
1.2499618530273438,1.2499618530273438,0.019989013671875
1.2499618530273438,1.2499618530273438,0.0408935546875
1.2499618530273438,1.2499618530273438,0.2892303466796875
1.2499618530273438,1.2499618530273438,0.23162841796875
1.2499618530273438,1.2499618530273438,0.198516845703125
1.2499618530273438,1.2499618530273438,0.3298187255859375
1.2499618530273438,1.2499618530273438,0.25360107421875
1.2499618530273438,1.2499618530273438,0.28289794921875
1.2499618530273438,1.2499618530273438,0.2388763427734375
0.9354019165039062,0.8753585815429688,0.3433990478515625
1.2499618530273438,1.2499618530273438,0.25482177734375
1.2499618530273438,1.2499618530273438,0.2909088134765625
1.2499618530273438,1.2499618530273438,0.4236602783203125
1.2499618530273438,1.2499618530273438,0.2294158935546875
1.2499618530273438,1.2499618530273438,0.1422119140625
1.2499618530273438,1.2499618530273438,0.218505859375
1.2499618530273438,1.2499618530273438,0.064697265625
1.2499618530273438,1.2499618530273438,-0.1598358154296875
1.2499618530273438,1.2499618530273438,-0.1581573486328125
1.2499618530273438,1.2499618530273438,-0.22735595703125
1.2499618530273438,1.2499618530273438,-0.412750244140625
1.2499618530273438,1.2499618530273438,-0.3816986083984375
1.2499618530273438,1.2499618530273438,-0.435638427734375
1.2499618530273438,1.2499618530273438,-0.4631805419921875
0.8979415893554688,0.9633636474609375,-0.469970703125
1.2499618530273438,1.2499618530273438,-0.286865234375
1.2499618530273438,1.2499618530273438,-0.3047943115234375
1.2499618530273438,1.2499618530273438,-0.2867889404296875
1.2499618530273438,1.2499618530273438,-0.11322021484375
1.2499618530273438,1.2499618530273438,0.02105712890625
1.2499618530273438,1.2499618530273438,-0.0214385986328125
1.2499618530273438,1.2499618530273438,-0.0274658203125
1.2499618530273438,1.2499618530273438,0.2826690673828125
1.2499618530273438,1.2499618530273438,0.213775634765625
1.2499618530273438,1.2499618530273438,0.219573974609375
1.2499618530273438,1.2499618530273438,0.2663421630859375
1.2499618530273438,1.2499618530273438,0.292816162109375
1.2499618530273438,1.2499618530273438,0.268402099609375
1.2499618530273438,1.2499618530273438,0.2725982666015625
0.9464645385742188,0.8853530883789062,0.3707122802734375
1.2499618530273438,1.2499618530273438,0.29541015625
1.2499618530273438,1.2499618530273438,0.32135009765625
1.2499618530273438,1.2499618530273438,0.572967529296875
1.2499618530273438,1.2499618530273438,0.2215576171875
1.2499618530273438,1.2499618530273438,0.1551055908203125
1.2499618530273438,1.2499618530273438,0.146026611328125
1.2499618530273438,1.2499618530273438,0.0296783447265625
1.2499618530273438,1.2499618530273438,-0.170135498046875
1.2499618530273438,1.2499618530273438,-0.1860809326171875
1.2499618530273438,1.2499618530273438,-0.26336669921875
1.2499618530273438,1.2499618530273438,-0.3366851806640625
1.2499618530273438,1.2499618530273438,-0.4058837890625
1.2499618530273438,1.2499618530273438,-0.47393798828125
1.2499618530273438,1.2499618530273438,-0.44891357421875
0.8932113647460938,0.95703125,-0.3882598876953125
1.2499618530273438,1.2499618530273438,-0.241241455078125
1.2499618530273438,1.2499618530273438,-0.2957916259765625
1.2499618530273438,1.2499618530273438,-0.378265380859375
1.2499618530273438,1.2499618530273438,-0.19989013671875
1.2499618530273438,1.2499618530273438,-0.022430419921875
1.2499618530273438,1.2499618530273438,-0.0249481201171875
1.2499618530273438,1.2499618530273438,0.0852203369140625
1.2499618530273438,1.2499618530273438,0.244903564453125
1.2499618530273438,1.2499618530273438,0.1496124267578125
1.2499618530273438,1.2499618530273438,0.1287078857421875
1.2499618530273438,1.2499618530273438,0.2095794677734375
1.2499618530273438,1.2499618530273438,0.2472686767578125
1.2499618530273438,1.2499618530273438,0.2072906494140625
1.2499618530273438,1.2499618530273438,0.2569580078125
0.95367431640625,0.89508056640625,0.3382110595703125
1.2499618530273438,1.2499618530273438,0.2777862548828125
1.2499618530273438,1.2499618530273438,0.322113037109375
1.2499618530273438,1.2499618530273438,0.4293060302734375
1.2499618530273438,1.2499618530273438,0.218048095703125
1.2499618530273438,1.2499618530273438,0.1525115966796875
1.2499618530273438,1.2499618530273438,0.1367950439453125
1.2499618530273438,1.2499618530273438,0.111846923828125
1.2499618530273438,1.2499618530273438,-0.15045166015625
1.2499618530273438,1.2499618530273438,-0.1773834228515625
1.2499618530273438,1.2499618530273438,-0.2295684814453125
1.2499618530273438,1.2499618530273438,-0.37811279296875
1.2499618530273438,1.2499618530273438,-0.4009246826171875
1.2499618530273438,1.2499618530273438,-0.4689788818359375
1.2499618530273438,1.2499618530273438,-0.470428466796875
0.9093475341796875,0.966949462890625,-0.4497528076171875
1.2499618530273438,1.2499618530273438,-0.3389739990234375
1.2499618530273438,1.2499618530273438,-0.25543212890625
1.2499618530273438,1.2499618530273438,-0.2719879150390625
1.2499618530273438,1.2499618530273438,-0.1318359375
1.2499618530273438,1.2499618530273438,-0.0311279296875
1.2499618530273438,1.2499618530273438,-0.10345458984375
1.2499618530273438,1.2499618530273438,-0.0215911865234375
1.2499618530273438,1.2499618530273438,0.2381134033203125
1.2499618530273438,1.2499618530273438,0.1617431640625
1.2499618530273438,1.2499618530273438,0.143890380859375
1.2499618530273438,1.2499618530273438,0.2435302734375
1.2499618530273438,1.2499618530273438,0.2445220947265625
1.2499618530273438,1.2499618530273438,0.2303314208984375
1.2499618530273438,1.2499618530273438,0.2503204345703125
0.9727096557617188,0.9202957153320312,0.234527587890625
1.2499618530273438,1.2499618530273438,0.2593231201171875
1.2499618530273438,1.2499618530273438,0.4412841796875
1.2499618530273438,1.2499618530273438,0.4772186279296875
1.2499618530273438,1.2499618530273438,0.2387237548828125
1.2499618530273438,1.2499618530273438,0.157928466796875
1.2499618530273438,1.2499618530273438,0.245361328125
1.2499618530273438,1.2499618530273438,-0.02288818359375
1.2499618530273438,1.2499618530273438,-0.09429931640625
1.2499618530273438,1.2499618530273438,-0.1873779296875
1.2499618530273438,1.2499618530273438,-0.1084136962890625
1.2499618530273438,1.2499618530273438,-0.3673553466796875
1.2499618530273438,1.2499618530273438,-0.3652191162109375
1.2499618530273438,1.2499618530273438,-0.4479217529296875
1.2499618530273438,1.2499618530273438,-0.4571533203125
0.9077072143554688,0.9738922119140625,-0.4917144775390625
1.2499618530273438,1.2499618530273438,-0.3375244140625
1.2499618530273438,1.2499618530273438,-0.2877044677734375
1.2499618530273438,1.2499618530273438,-0.30303955078125
1.2499618530273438,1.2499618530273438,-0.09002685546875
1.2499618530273438,1.2499618530273438,-0.0147247314453125
1.2499618530273438,1.2499618530273438,-0.054779052734375
1.2499618530273438,1.2499618530273438,0.057220458984375
1.2499618530273438,1.2499618530273438,0.160369873046875
1.2499618530273438,1.2499618530273438,0.2169036865234375
1.2499618530273438,1.2499618530273438,0.1430511474609375
1.2499618530273438,1.2499618530273438,0.291290283203125
1.2499618530273438,1.2499618530273438,0.2744293212890625
1.2499618530273438,1.2499618530273438,0.207672119140625
1.2499618530273438,1.2499618530273438,0.281524658203125
0.9746170043945312,0.9381103515625,0.2864837646484375
1.2499618530273438,1.2499618530273438,0.293426513671875
1.2499618530273438,1.2499618530273438,0.332489013671875
1.2499618530273438,1.2499618530273438,0.376739501953125
1.2499618530273438,1.2499618530273438,0.3578948974609375
1.2499618530273438,1.2499618530273438,0.203704833984375
1.2499618530273438,1.2499618530273438,0.207672119140625
1.2499618530273438,1.2499618530273438,0.095672607421875
1.2499618530273438,1.2499618530273438,-0.178375244140625
1.2499618530273438,1.2499618530273438,-0.1409912109375
1.2499618530273438,1.2499618530273438,-0.18707275390625
1.2499618530273438,1.2499618530273438,-0.3875732421875
1.2499618530273438,1.2499618530273438,-0.3619384765625
1.2499618530273438,1.2499618530273438,-0.3924560546875
1.2499618530273438,1.2499618530273438,-0.44647216796875
0.957183837890625,1.0199356079101562,-0.4666900634765625
1.2499618530273438,1.2499618530273438,-0.3435516357421875
1.2499618530273438,1.2499618530273438,-0.2819061279296875
1.2499618530273438,1.2499618530273438,-0.2477264404296875
1.2499618530273438,1.2499618530273438,-0.0972747802734375
1.2499618530273438,1.2499618530273438,-0.0209808349609375
1.2499618530273438,1.2499618530273438,-0.049285888671875
1.2499618530273438,1.2499618530273438,-0.0083160400390625
1.2499618530273438,1.2499618530273438,0.2346038818359375
1.2499618530273438,1.2499618530273438,0.1847076416015625
1.2499618530273438,1.2499618530273438,0.1561737060546875
1.2499618530273438,1.2499618530273438,0.2712249755859375
1.2499618530273438,1.2499618530273438,0.233154296875
1.2499618530273438,1.2499618530273438,0.263671875
1.2499618530273438,1.2499618530273438,0.2558135986328125
0.99853515625,0.9416580200195312,0.3372955322265625
1.2499618530273438,1.2499618530273438,0.301971435546875
1.2499618530273438,1.2499618530273438,0.3421783447265625
1.2499618530273438,1.2499618530273438,0.484771728515625
1.2499618530273438,1.2499618530273438,0.2036285400390625
1.2499618530273438,1.2499618530273438,0.1338958740234375
1.2499618530273438,1.2499618530273438,0.1776123046875
1.2499618530273438,1.2499618530273438,0.010223388671875
1.2499618530273438,1.2499618530273438,-0.158843994140625
1.2499618530273438,1.2499618530273438,-0.0841522216796875
1.2499618530273438,1.2499618530273438,-0.220184326171875
1.2499618530273438,1.2499618530273438,-0.3757476806640625
1.2499618530273438,1.2499618530273438,-0.4282379150390625
1.2499618530273438,1.2499618530273438,-0.4460906982421875
1.2499618530273438,1.2499618530273438,-0.47882080078125
0.9760665893554688,1.0462570190429688,-0.3945159912109375
1.2499618530273438,1.2499618530273438,-0.2655792236328125
1.2499618530273438,1.2499618530273438,-0.26153564453125
1.2499618530273438,1.2499618530273438,-0.24169921875
1.2499618530273438,1.2499618530273438,-0.18585205078125
1.2499618530273438,1.2499618530273438,0.07049560546875
1.2499618530273438,1.2499618530273438,-0.0287628173828125
1.2499618530273438,1.2499618530273438,0.0244903564453125
1.2499618530273438,1.2499618530273438,0.2809906005859375
1.2499618530273438,1.2499618530273438,0.1801300048828125
1.2499618530273438,1.2499618530273438,0.1389312744140625
1.2499618530273438,1.2499618530273438,0.2373504638671875
1.2499618530273438,1.2499618530273438,0.261077880859375
1.2499618530273438,1.2499618530273438,0.24261474609375
1.2499618530273438,1.2499618530273438,0.23895263671875
0.9930038452148438,0.9380340576171875,0.37628173828125
1.2499618530273438,1.2499618530273438,0.2198028564453125
1.2499618530273438,1.2499618530273438,0.320281982421875
1.2499618530273438,1.2499618530273438,0.4839324951171875
1.2499618530273438,1.2499618530273438,0.1595306396484375
1.2499618530273438,1.2499618530273438,0.1946258544921875
1.2499618530273438,1.2499618530273438,0.201416015625
1.2499618530273438,1.2499618530273438,0.0766754150390625
1.2499618530273438,1.2499618530273438,-0.184478759765625
1.2499618530273438,1.2499618530273438,-0.1218414306640625
1.2499618530273438,1.2499618530273438,-0.1551055908203125
1.2499618530273438,1.2499618530273438,-0.448150634765625
1.2499618530273438,1.2499618530273438,-0.4183197021484375
1.2499618530273438,1.2499618530273438,-0.4343414306640625
1.2499618530273438,1.2499618530273438,-0.4703521728515625
0.9811019897460938,1.0608673095703125,-0.4682159423828125
1.2499618530273438,1.2499618530273438,-0.3171539306640625
1.2499618530273438,1.2499618530273438,-0.2762603759765625
1.2499618530273438,1.2499618530273438,-0.2895355224609375
1.2499618530273438,1.2499618530273438,-0.10711669921875
1.2499618530273438,1.2499618530273438,-0.0110626220703125
1.2499618530273438,1.2499618530273438,-0.0806427001953125
1.2499618530273438,1.2499618530273438,0.1082611083984375
1.2499618530273438,1.2499618530273438,0.2794647216796875
1.2499618530273438,1.2499618530273438,0.24261474609375
1.2499618530273438,1.2499618530273438,0.1879119873046875
1.2499618530273438,1.2499618530273438,0.252227783203125
1.2499618530273438,1.2499618530273438,0.2494049072265625
1.2499618530273438,1.2499618530273438,0.2674102783203125
1.2499618530273438,1.2499618530273438,0.26947021484375
0.9801101684570312,0.9207534790039062,0.3594970703125
1.2499618530273438,1.2499618530273438,0.2936553955078125
1.2499618530273438,1.2499618530273438,0.340423583984375
1.2499618530273438,1.2499618530273438,0.367889404296875
1.2499618530273438,1.2499618530273438,0.2848052978515625
1.2499618530273438,1.2499618530273438,0.1319122314453125
1.2499618530273438,1.2499618530273438,0.2032470703125
1.2499618530273438,1.2499618530273438,0.0101470947265625
1.2499618530273438,1.2499618530273438,-0.2117919921875
1.2499618530273438,1.2499618530273438,-0.09429931640625
1.2499618530273438,1.2499618530273438,-0.197601318359375
1.2499618530273438,1.2499618530273438,-0.3900146484375
1.2499618530273438,1.2499618530273438,-0.40313720703125
1.2499618530273438,1.2499618530273438,-0.4267120361328125
1.2499618530273438,1.2499618530273438,-0.4837799072265625
0.9832382202148438,1.081390380859375,-0.445404052734375
1.2499618530273438,1.2499618530273438,-0.28228759765625
1.2499618530273438,1.2499618530273438,-0.2410125732421875
1.2499618530273438,1.2499618530273438,-0.2504730224609375
1.2499618530273438,1.2499618530273438,-0.140228271484375
1.2499618530273438,1.2499618530273438,-0.0128173828125
1.2499618530273438,1.2499618530273438,-0.07171630859375
1.2499618530273438,1.2499618530273438,0.013580322265625
1.2499618530273438,1.2499618530273438,0.2093505859375
1.2499618530273438,1.2499618530273438,0.208282470703125
1.2499618530273438,1.2499618530273438,0.189361572265625
1.2499618530273438,1.2499618530273438,0.3369903564453125
1.2499618530273438,1.2499618530273438,0.285797119140625
1.2499618530273438,1.2499618530273438,0.28289794921875
1.2499618530273438,1.2499618530273438,0.3070831298828125
0.9697341918945312,0.9093856811523438,0.35675048828125
1.2499618530273438,1.2499618530273438,0.2655029296875
1.2499618530273438,1.2499618530273438,0.2850341796875
1.2499618530273438,1.2499618530273438,0.415496826171875
1.2499618530273438,1.2499618530273438,0.205230712890625
1.2499618530273438,1.2499618530273438,0.1520538330078125
1.2499618530273438,1.2499618530273438,0.1639556884765625
1.2499618530273438,1.2499618530273438,0.072479248046875
1.2499618530273438,1.2499618530273438,-0.1142120361328125
1.2499618530273438,1.2499618530273438,-0.172882080078125
1.2499618530273438,1.2499618530273438,-0.177154541015625
1.2499618530273438,1.2499618530273438,-0.41412353515625
1.2499618530273438,1.2499618530273438,-0.3911590576171875
1.2499618530273438,1.2499618530273438,-0.403289794921875
1.2499618530273438,1.2499618530273438,-0.4872894287109375
1.0086822509765625,1.0984039306640625,-0.45623779296875
1.2499618530273438,1.2499618530273438,-0.2947235107421875
1.2499618530273438,1.2499618530273438,-0.233001708984375
1.2499618530273438,1.2499618530273438,-0.2172088623046875
1.2499618530273438,1.2499618530273438,-0.0730133056640625
1.2499618530273438,1.2499618530273438,-0.0263214111328125
1.2499618530273438,1.2499618530273438,-0.0616455078125
1.2499618530273438,1.2499618530273438,0.09857177734375
1.2499618530273438,1.2499618530273438,0.2660369873046875
1.2499618530273438,1.2499618530273438,0.1789093017578125
1.2499618530273438,1.2499618530273438,0.1488494873046875
1.2499618530273438,1.2499618530273438,0.285186767578125
1.2499618530273438,1.2499618530273438,0.2791595458984375
1.2499618530273438,1.2499618530273438,0.2556610107421875
1.2499618530273438,1.2499618530273438,0.27435302734375
0.9790420532226562,0.9437942504882812,0.3375244140625
1.2499618530273438,1.2499618530273438,0.3624725341796875
1.2499618530273438,1.2499618530273438,0.379180908203125
1.2499618530273438,1.2499618530273438,0.3524017333984375
1.2499618530273438,1.2499618530273438,0.27191162109375
1.2499618530273438,1.2499618530273438,0.1985931396484375
1.2499618530273438,1.2499618530273438,0.1200103759765625
1.2499618530273438,1.2499618530273438,0.013580322265625
1.2499618530273438,1.2499618530273438,-0.1483154296875
1.2499618530273438,1.2499618530273438,-0.1348114013671875
1.2499618530273438,1.2499618530273438,-0.2716827392578125
1.2499618530273438,1.2499618530273438,-0.34454345703125
1.2499618530273438,1.2499618530273438,-0.455169677734375
1.2499618530273438,1.2499618530273438,-0.4506683349609375
1.2499618530273438,1.2499618530273438,-0.4791259765625
1.0593414306640625,1.1241531372070312,-0.4376983642578125
1.2499618530273438,1.2499618530273438,-0.250396728515625
1.2499618530273438,1.2499618530273438,-0.2458953857421875
1.2499618530273438,1.2499618530273438,-0.2634429931640625
1.2499618530273438,1.2499618530273438,-0.080413818359375
1.2499618530273438,1.2499618530273438,-0.00274658203125
1.2499618530273438,1.2499618530273438,-0.06195068359375
1.2499618530273438,1.2499618530273438,0.0019073486328125
1.2499618530273438,1.2499618530273438,0.2706146240234375
1.2499618530273438,1.2499618530273438,0.1857757568359375
1.2499618530273438,1.2499618530273438,0.2254486083984375
1.2499618530273438,1.2499618530273438,0.257720947265625
1.2499618530273438,1.2499618530273438,0.303955078125
1.2499618530273438,1.2499618530273438,0.2014923095703125
1.2499618530273438,1.2499618530273438,0.288848876953125
1.0175704956054688,0.9792709350585938,0.32989501953125
1.2499618530273438,1.2499618530273438,0.304718017578125
1.2499618530273438,1.2499618530273438,0.31982421875
1.2499618530273438,1.2499618530273438,0.489349365234375
1.2499618530273438,1.2499618530273438,0.27435302734375
1.2499618530273438,1.2499618530273438,0.2661895751953125
1.2499618530273438,1.2499618530273438,0.1718902587890625
1.2499618530273438,1.2499618530273438,0.0139617919921875
1.2499618530273438,1.2499618530273438,-0.1033782958984375
1.2499618530273438,1.2499618530273438,-0.1953125
1.2499618530273438,1.2499618530273438,-0.2175140380859375
1.2499618530273438,1.2499618530273438,-0.3719329833984375
1.2499618530273438,1.2499618530273438,-0.43731689453125
1.2499618530273438,1.2499618530273438,-0.4285430908203125
1.2499618530273438,1.2499618530273438,-0.482940673828125
1.0424423217773438,1.1174774169921875,-0.4399871826171875
1.2499618530273438,1.2499618530273438,-0.3021240234375
1.2499618530273438,1.2499618530273438,-0.29144287109375
1.2499618530273438,1.2499618530273438,-0.2257537841796875
1.2499618530273438,1.2499618530273438,-0.1369476318359375
1.2499618530273438,1.2499618530273438,-0.0301361083984375
1.2499618530273438,1.2499618530273438,-0.057220458984375
1.2499618530273438,1.2499618530273438,0.1061248779296875
1.2499618530273438,1.2499618530273438,0.237579345703125
1.2499618530273438,1.2499618530273438,0.191650390625
1.2499618530273438,1.2499618530273438,0.22613525390625
1.2499618530273438,1.2499618530273438,0.2594757080078125
1.2499618530273438,1.2499618530273438,0.248565673828125
1.2499618530273438,1.2499618530273438,0.2475738525390625
1.2499618530273438,1.2499618530273438,0.2912139892578125
1.035614013671875,0.9917449951171875,0.3054046630859375
1.2499618530273438,1.2499618530273438,0.277252197265625
1.2499618530273438,1.2499618530273438,0.3073883056640625
1.2499618530273438,1.2499618530273438,0.3348541259765625
1.2499618530273438,1.2499618530273438,0.2801513671875
1.2499618530273438,1.2499618530273438,0.17791748046875
1.2499618530273438,1.2499618530273438,0.2082061767578125
1.2499618530273438,1.2499618530273438,0.001983642578125
1.2499618530273438,1.2499618530273438,-0.1031494140625
1.2499618530273438,1.2499618530273438,-0.2118682861328125
1.2499618530273438,1.2499618530273438,-0.1953887939453125
1.2499618530273438,1.2499618530273438,-0.344085693359375
1.2499618530273438,1.2499618530273438,-0.428924560546875
1.2499618530273438,1.2499618530273438,-0.4001617431640625
1.2499618530273438,1.2499618530273438,-0.4863739013671875
1.0549545288085938,1.1256027221679688,-0.4383087158203125
1.2499618530273438,1.2499618530273438,-0.3269195556640625
1.2499618530273438,1.2499618530273438,-0.2716827392578125
1.2499618530273438,1.2499618530273438,-0.319671630859375
1.2499618530273438,1.2499618530273438,-0.0594329833984375
1.2499618530273438,1.2499618530273438,0.012359619140625
1.2499618530273438,1.2499618530273438,-0.0138092041015625
1.2499618530273438,1.2499618530273438,-0.0110626220703125
1.2499618530273438,1.2499618530273438,0.1963043212890625
1.2499618530273438,1.2499618530273438,0.1816558837890625
1.2499618530273438,1.2499618530273438,0.2155303955078125
1.2499618530273438,1.2499618530273438,0.2364349365234375
1.2499618530273438,1.2499618530273438,0.236968994140625
1.2499618530273438,1.2499618530273438,0.2799224853515625
1.2499618530273438,1.2499618530273438,0.28350830078125
1.0564804077148438,1.015625,0.3208160400390625
1.2499618530273438,1.2499618530273438,0.325927734375
1.2499618530273438,1.2499618530273438,0.3179931640625
1.2499618530273438,1.2499618530273438,0.3281402587890625
1.2499618530273438,1.2499618530273438,0.2178192138671875
1.2499618530273438,1.2499618530273438,0.2057647705078125
1.2499618530273438,1.2499618530273438,0.123443603515625
1.2499618530273438,1.2499618530273438,0.028533935546875
1.2499618530273438,1.2499618530273438,-0.119781494140625
1.2499618530273438,1.2499618530273438,-0.16204833984375
1.2499618530273438,1.2499618530273438,-0.2011871337890625
1.2499618530273438,1.2499618530273438,-0.391998291015625
1.2499618530273438,1.2499618530273438,-0.4865264892578125
1.2499618530273438,1.2499618530273438,-0.4148101806640625
1.2499618530273438,1.2499618530273438,-0.4605865478515625
1.0288238525390625,1.087493896484375,-0.473480224609375
1.2499618530273438,1.2499618530273438,-0.3144073486328125
1.2499618530273438,1.2499618530273438,-0.253448486328125
1.2499618530273438,1.2499618530273438,-0.2050018310546875
1.2499618530273438,1.2499618530273438,-0.1410675048828125
1.2499618530273438,1.2499618530273438,-0.0337982177734375
1.2499618530273438,1.2499618530273438,-0.033416748046875
1.2499618530273438,1.2499618530273438,0.09796142578125
1.2499618530273438,1.2499618530273438,0.24261474609375
1.2499618530273438,1.2499618530273438,0.1813507080078125
1.2499618530273438,1.2499618530273438,0.250244140625
1.2499618530273438,1.2499618530273438,0.2506256103515625
1.2499618530273438,1.2499618530273438,0.2561187744140625
1.2499618530273438,1.2499618530273438,0.25970458984375
1.2499618530273438,1.2499618530273438,0.2591705322265625
1.07757568359375,1.02996826171875,0.3067779541015625
1.2499618530273438,1.2499618530273438,0.2536773681640625
1.2499618530273438,1.2499618530273438,0.342254638671875
1.2499618530273438,1.2499618530273438,0.41839599609375
1.2499618530273438,1.2499618530273438,0.2099609375
1.2499618530273438,1.2499618530273438,0.089111328125
1.2499618530273438,1.2499618530273438,0.16571044921875
1.2499618530273438,1.2499618530273438,0.0482177734375
1.2499618530273438,1.2499618530273438,-0.2100372314453125
1.2499618530273438,1.2499618530273438,-0.121612548828125
1.2499618530273438,1.2499618530273438,-0.2361297607421875
1.2499618530273438,1.2499618530273438,-0.431976318359375
1.2499618530273438,1.2499618530273438,-0.406341552734375
1.2499618530273438,1.2499618530273438,-0.448455810546875
1.2499618530273438,1.2499618530273438,-0.498809814453125
1.0214614868164062,1.0980987548828125,-0.42022705078125
1.2499618530273438,1.2499618530273438,-0.2483367919921875
1.2499618530273438,1.2499618530273438,-0.25177001953125
1.2499618530273438,1.2499618530273438,-0.2288818359375
1.2499618530273438,1.2499618530273438,-0.1728057861328125
1.2499618530273438,1.2499618530273438,-0.0826263427734375
1.2499618530273438,1.2499618530273438,-0.028076171875
1.2499618530273438,1.2499618530273438,0.064849853515625
1.2499618530273438,1.2499618530273438,0.2740478515625
1.2499618530273438,1.2499618530273438,0.222320556640625
1.2499618530273438,1.2499618530273438,0.1294708251953125
1.2499618530273438,1.2499618530273438,0.318450927734375
1.2499618530273438,1.2499618530273438,0.255126953125
1.2499618530273438,1.2499618530273438,0.263824462890625
1.2499618530273438,1.2499618530273438,0.2964019775390625
1.1182403564453125,1.0342788696289062,0.3125
1.2499618530273438,1.2499618530273438,0.29998779296875
1.2499618530273438,1.2499618530273438,0.33111572265625
1.2499618530273438,1.2499618530273438,0.4205322265625
1.2499618530273438,1.2499618530273438,0.2561187744140625
1.2499618530273438,1.2499618530273438,0.1708221435546875
1.2499618530273438,1.2499618530273438,0.1761627197265625
1.2499618530273438,1.2499618530273438,0.0156402587890625
1.2499618530273438,1.2499618530273438,-0.07720947265625
1.2499618530273438,1.2499618530273438,-0.2054595947265625
1.2499618530273438,1.2499618530273438,-0.1863861083984375
1.2499618530273438,1.2499618530273438,-0.3659820556640625
1.2499618530273438,1.2499618530273438,-0.434722900390625
1.2499618530273438,1.2499618530273438,-0.443115234375
1.2499618530273438,1.2499618530273438,-0.509796142578125
1.0222244262695312,1.1118316650390625,-0.4181671142578125
1.2499618530273438,1.2499618530273438,-0.317840576171875
1.2499618530273438,1.2499618530273438,-0.3009796142578125
1.2499618530273438,1.2499618530273438,-0.208740234375
1.2499618530273438,1.2499618530273438,-0.1119232177734375
1.2499618530273438,1.2499618530273438,-0.0604248046875
1.2499618530273438,1.2499618530273438,-0.126190185546875
1.2499618530273438,1.2499618530273438,0.039520263671875
1.2499618530273438,1.2499618530273438,0.1731109619140625
1.2499618530273438,1.2499618530273438,0.1772308349609375
1.2499618530273438,1.2499618530273438,0.190887451171875
1.2499618530273438,1.2499618530273438,0.2509307861328125
1.2499618530273438,1.2499618530273438,0.320587158203125
1.2499618530273438,1.2499618530273438,0.2557373046875
1.2499618530273438,1.2499618530273438,0.3017425537109375
1.09649658203125,1.0633468627929688,0.3649139404296875
1.2499618530273438,1.2499618530273438,0.2623748779296875
1.2499618530273438,1.2499618530273438,0.2925872802734375
1.2499618530273438,1.2499618530273438,0.3778076171875
1.2499618530273438,1.2499618530273438,0.15533447265625
1.2499618530273438,1.2499618530273438,0.1958465576171875
1.2499618530273438,1.2499618530273438,0.060882568359375
1.2499618530273438,1.2499618530273438,-0.0400543212890625
1.2499618530273438,1.2499618530273438,-0.1454925537109375
1.2499618530273438,1.2499618530273438,-0.1842498779296875
1.2499618530273438,1.2499618530273438,-0.176849365234375
1.2499618530273438,1.2499618530273438,-0.4291534423828125
1.2499618530273438,1.2499618530273438,-0.447235107421875
1.2499618530273438,1.2499618530273438,-0.4201507568359375
1.2499618530273438,1.2499618530273438,-0.4758453369140625
1.1011886596679688,1.1603164672851562,-0.3943634033203125
1.2499618530273438,1.2499618530273438,-0.3122711181640625
1.2499618530273438,1.2499618530273438,-0.3002166748046875
1.2499618530273438,1.2499618530273438,-0.2933502197265625
1.2499618530273438,1.2499618530273438,-0.0870513916015625
1.2499618530273438,1.2499618530273438,0.0043487548828125
1.2499618530273438,1.2499618530273438,-0.079803466796875
1.2499618530273438,1.2499618530273438,0.0986480712890625
1.2499618530273438,1.2499618530273438,0.21331787109375
1.2499618530273438,1.2499618530273438,0.1793670654296875
1.2499618530273438,1.2499618530273438,0.1879119873046875
1.2499618530273438,1.2499618530273438,0.3121185302734375
1.2499618530273438,1.2499618530273438,0.254364013671875
1.2499618530273438,1.2499618530273438,0.23284912109375
1.2499618530273438,1.2499618530273438,0.248260498046875
1.122894287109375,1.0866928100585938,0.3174591064453125
1.2499618530273438,1.2499618530273438,0.2655029296875
1.2499618530273438,1.2499618530273438,0.32623291015625
1.2499618530273438,1.2499618530273438,0.30792236328125
1.2499618530273438,1.2499618530273438,0.321502685546875
1.2499618530273438,1.2499618530273438,0.2124786376953125
1.2499618530273438,1.2499618530273438,0.191802978515625
1.2499618530273438,1.2499618530273438,0.046234130859375
1.2499618530273438,1.2499618530273438,-0.2072906494140625
1.2499618530273438,1.2499618530273438,-0.1587677001953125
1.2499618530273438,1.2499618530273438,-0.21209716796875
1.2499618530273438,1.2499618530273438,-0.3466033935546875
1.2499618530273438,1.2499618530273438,-0.441436767578125
1.2499618530273438,1.2499618530273438,-0.42755126953125
1.2499618530273438,1.2499618530273438,-0.4802703857421875
1.1186981201171875,1.1835098266601562,-0.4193115234375
1.2499618530273438,1.2499618530273438,-0.316619873046875
1.2499618530273438,1.2499618530273438,-0.2823638916015625
1.2499618530273438,1.2499618530273438,-0.2825927734375
1.2499618530273438,1.2499618530273438,-0.1070404052734375
1.2499618530273438,1.2499618530273438,-0.0106048583984375
1.2499618530273438,1.2499618530273438,-0.058135986328125
1.2499618530273438,1.2499618530273438,0.08880615234375
1.2499618530273438,1.2499618530273438,0.2024078369140625
1.2499618530273438,1.2499618530273438,0.1958465576171875
1.2499618530273438,1.2499618530273438,0.2236175537109375
1.2499618530273438,1.2499618530273438,0.2508544921875
1.2499618530273438,1.2499618530273438,0.1973724365234375
1.2499618530273438,1.2499618530273438,0.2034759521484375
1.2499618530273438,1.2499618530273438,0.2658843994140625
1.1371994018554688,1.0882949829101562,0.33447265625
1.2499618530273438,1.2499618530273438,0.30120849609375
1.2499618530273438,1.2499618530273438,0.391998291015625
1.2499618530273438,1.2499618530273438,0.2748870849609375
1.2499618530273438,1.2499618530273438,0.25970458984375
1.2499618530273438,1.2499618530273438,0.19256591796875
1.2499618530273438,1.2499618530273438,0.1581573486328125
1.2499618530273438,1.2499618530273438,0.026092529296875
1.2499618530273438,1.2499618530273438,-0.1580810546875
1.2499618530273438,1.2499618530273438,-0.1567840576171875
1.2499618530273438,1.2499618530273438,-0.16845703125
1.2499618530273438,1.2499618530273438,-0.4354095458984375
1.2499618530273438,1.2499618530273438,-0.377044677734375
1.2499618530273438,1.2499618530273438,-0.408172607421875
1.2499618530273438,1.2499618530273438,-0.4692840576171875
1.1275100708007812,1.236114501953125,-0.43426513671875
1.2499618530273438,1.2499618530273438,-0.30242919921875
1.2499618530273438,1.2499618530273438,-0.313873291015625
1.2499618530273438,1.2499618530273438,-0.2117156982421875
1.2499618530273438,1.2499618530273438,-0.0829315185546875
1.2499618530273438,1.2499618530273438,-0.0383758544921875
1.2499618530273438,1.2499618530273438,-0.0164794921875
1.2499618530273438,1.2499618530273438,0.146026611328125
1.2499618530273438,1.2499618530273438,0.1146697998046875
1.2499618530273438,1.2499618530273438,0.16632080078125
1.2499618530273438,1.2499618530273438,0.1946258544921875
1.2499618530273438,1.2499618530273438,0.2802276611328125
1.2499618530273438,1.2499618530273438,0.24383544921875
1.2499618530273438,1.2499618530273438,0.22003173828125
1.2499618530273438,1.2499618530273438,0.28778076171875
1.1817550659179688,1.08001708984375,0.350799560546875
1.2499618530273438,1.2499618530273438,0.288238525390625
1.2499618530273438,1.2499618530273438,0.396881103515625
1.2499618530273438,1.2499618530273438,0.3832244873046875
1.2499618530273438,1.2499618530273438,0.2353668212890625
1.2499618530273438,1.2499618530273438,0.23345947265625
1.2499618530273438,1.2499618530273438,0.10986328125
1.2499618530273438,1.2499618530273438,-0.013580322265625
1.2499618530273438,1.2499618530273438,-0.1268768310546875
1.2499618530273438,1.2499618530273438,-0.1911163330078125
1.2499618530273438,1.2499618530273438,-0.225372314453125
1.2499618530273438,1.2499618530273438,-0.3716278076171875
1.2499618530273438,1.2499618530273438,-0.417327880859375
1.2499618530273438,1.2499618530273438,-0.4006195068359375
1.2499618530273438,1.2499618530273438,-0.4384613037109375
1.1590957641601562,1.2462615966796875,-0.391693115234375
1.2499618530273438,1.2499618530273438,-0.305938720703125
1.2499618530273438,1.2499618530273438,-0.25634765625
1.2499618530273438,1.2499618530273438,-0.1345062255859375
1.2499618530273438,1.2499618530273438,-0.1609039306640625
1.2499618530273438,1.2499618530273438,0.0376129150390625
1.2499618530273438,1.2499618530273438,-0.0444793701171875
1.2499618530273438,1.2499618530273438,0.109710693359375
1.2499618530273438,1.2499618530273438,0.2880096435546875
1.2499618530273438,1.2499618530273438,0.212554931640625
1.2499618530273438,1.2499618530273438,0.2393341064453125
1.2499618530273438,1.2499618530273438,0.30792236328125
1.2499618530273438,1.2499618530273438,0.2701568603515625
1.2499618530273438,1.2499618530273438,0.1953125
1.2499618530273438,1.2499618530273438,0.2490997314453125
1.1255264282226562,1.088104248046875,0.3864288330078125
1.2499618530273438,1.2499618530273438,0.3565216064453125
1.2499618530273438,1.2499618530273438,0.4114532470703125
1.2499618530273438,1.2499618530273438,0.35552978515625
1.2499618530273438,1.2499618530273438,0.2008819580078125
1.2499618530273438,1.2499618530273438,0.222930908203125
1.2499618530273438,1.2499618530273438,0.130462646484375
1.2499618530273438,1.2499618530273438,-0.0457000732421875
1.2499618530273438,1.2499618530273438,-0.1323699951171875
1.2499618530273438,1.2499618530273438,-0.211181640625
1.2499618530273438,1.2499618530273438,-0.19927978515625
1.2499618530273438,1.2499618530273438,-0.422821044921875
1.2499618530273438,1.2499618530273438,-0.478973388671875
1.2499618530273438,1.2499618530273438,-0.381927490234375
1.2499618530273438,1.2499618530273438,-0.487213134765625
1.2052154541015625,1.2499618530273438,-0.3986358642578125
1.2499618530273438,1.2499618530273438,-0.2822113037109375
1.2499618530273438,1.2499618530273438,-0.233154296875
1.2499618530273438,1.2499618530273438,-0.2730560302734375
1.2499618530273438,1.2499618530273438,-0.148162841796875
1.2499618530273438,1.2499618530273438,-0.0203704833984375
1.2499618530273438,1.2499618530273438,0.040130615234375
1.2499618530273438,1.2499618530273438,0.0733184814453125
1.2499618530273438,1.2499618530273438,0.2631378173828125
1.2499618530273438,1.2499618530273438,0.164794921875
1.2499618530273438,1.2499618530273438,0.23040771484375
1.2499618530273438,1.2499618530273438,0.300140380859375
1.2499618530273438,1.2499618530273438,0.276641845703125
1.2499618530273438,1.2499618530273438,0.254669189453125
1.2499618530273438,1.2499618530273438,0.291748046875
1.1294937133789062,1.099090576171875,0.429229736328125
1.2499618530273438,1.2499618530273438,0.4187774658203125
1.2499618530273438,1.2499618530273438,0.3603363037109375
1.2499618530273438,1.2499618530273438,0.348663330078125
1.2499618530273438,1.2499618530273438,0.2542877197265625
1.2499618530273438,1.2499618530273438,0.091705322265625
1.2499618530273438,1.2499618530273438,0.1549530029296875
1.2499618530273438,1.2499618530273438,-0.0418853759765625
1.2499618530273438,1.2499618530273438,-0.1039886474609375
1.2499618530273438,1.2499618530273438,-0.1869964599609375
1.2499618530273438,1.2499618530273438,-0.2922821044921875
1.2499618530273438,1.2499618530273438,-0.375518798828125
1.2499618530273438,1.2499618530273438,-0.4750823974609375
1.2499618530273438,1.2499618530273438,-0.423583984375
1.2499618530273438,1.2499618530273438,-0.47760009765625
1.2329864501953125,1.2499618530273438,-0.4071807861328125
1.2499618530273438,1.2499618530273438,-0.3276824951171875
1.2499618530273438,1.2499618530273438,-0.276031494140625
1.2499618530273438,1.2499618530273438,-0.1555633544921875
1.2499618530273438,1.2499618530273438,-0.101470947265625
1.2499618530273438,1.2499618530273438,-0.0016021728515625
1.2499618530273438,1.2499618530273438,0.0539398193359375
1.2499618530273438,1.2499618530273438,0.1461029052734375
1.2499618530273438,1.2499618530273438,0.22430419921875
1.2499618530273438,1.2499618530273438,0.2373504638671875
1.2499618530273438,1.2499618530273438,0.20294189453125
1.2499618530273438,1.2499618530273438,0.3089141845703125
1.2499618530273438,1.2499618530273438,0.2478790283203125
1.2499618530273438,1.2499618530273438,0.2512359619140625
1.2499618530273438,1.2499618530273438,0.328826904296875
1.1917495727539062,1.1545944213867188,0.339508056640625
1.2499618530273438,1.2499618530273438,0.2956390380859375
1.2499618530273438,1.2499618530273438,0.40924072265625
1.2499618530273438,1.2499618530273438,0.38909912109375
1.2499618530273438,1.2499618530273438,0.2149200439453125
1.2499618530273438,1.2499618530273438,0.19073486328125
1.2499618530273438,1.2499618530273438,0.072021484375
1.2499618530273438,1.2499618530273438,0.0151824951171875
1.2499618530273438,1.2499618530273438,-0.169677734375
1.2499618530273438,1.2499618530273438,-0.2281951904296875
1.2499618530273438,1.2499618530273438,-0.2890777587890625
1.2499618530273438,1.2499618530273438,-0.3649139404296875
1.2499618530273438,1.2499618530273438,-0.3948211669921875
1.2499618530273438,1.2499618530273438,-0.408172607421875
1.2499618530273438,1.2499618530273438,-0.44281005859375
1.2499618530273438,1.2499618530273438,-0.4276275634765625
1.2499618530273438,1.2499618530273438,-0.2071380615234375
1.2499618530273438,1.2499618530273438,-0.2789306640625
1.2499618530273438,1.2499618530273438,-0.172119140625
1.2499618530273438,1.2499618530273438,-0.1139068603515625
1.2499618530273438,1.2499618530273438,-0.0589752197265625
1.2499618530273438,1.2499618530273438,-0.0337982177734375
1.2499618530273438,1.2499618530273438,0.087890625
1.2499618530273438,1.2499618530273438,0.180816650390625
1.2499618530273438,1.2499618530273438,0.2191925048828125
1.2499618530273438,1.2499618530273438,0.2080535888671875
1.2499618530273438,1.2499618530273438,0.2767181396484375
1.2499618530273438,1.2499618530273438,0.2458953857421875
1.2499618530273438,1.2499618530273438,0.2486419677734375
1.2499618530273438,1.2499618530273438,0.312652587890625
1.2257766723632812,1.1799240112304688,0.302581787109375
1.2499618530273438,1.2499618530273438,0.300445556640625
1.2499618530273438,1.2499618530273438,0.403289794921875
1.2499618530273438,1.2499618530273438,0.4956817626953125
1.2499618530273438,1.2499618530273438,0.18402099609375
1.2499618530273438,1.2499618530273438,0.230255126953125
1.2499618530273438,1.2499618530273438,0.123291015625
1.2499618530273438,1.2499618530273438,-0.04791259765625
1.2499618530273438,1.2499618530273438,-0.1297760009765625
1.2499618530273438,1.2499618530273438,-0.2008819580078125
1.2499618530273438,1.2499618530273438,-0.2306365966796875
1.2499618530273438,1.2499618530273438,-0.3302001953125
1.2499618530273438,1.2499618530273438,-0.46844482421875
1.2499618530273438,1.2499618530273438,-0.408172607421875
1.2499618530273438,1.2499618530273438,-0.4465484619140625
1.2499618530273438,1.2499618530273438,-0.3824615478515625
1.2499618530273438,1.2499618530273438,-0.2715301513671875
1.2499618530273438,1.2499618530273438,-0.3136444091796875
1.2499618530273438,1.2499618530273438,-0.2413177490234375
1.2499618530273438,1.2499618530273438,-0.064697265625
1.2499618530273438,1.2499618530273438,0.035400390625
1.2499618530273438,1.2499618530273438,-0.0749969482421875
1.2499618530273438,1.2499618530273438,0.1654052734375
1.2499618530273438,1.2499618530273438,0.1917266845703125
1.2499618530273438,1.2499618530273438,0.16326904296875
1.2499618530273438,1.2499618530273438,0.18402099609375
1.2499618530273438,1.2499618530273438,0.2643585205078125
1.2499618530273438,1.2499618530273438,0.264129638671875
1.2499618530273438,1.2499618530273438,0.207061767578125
1.2499618530273438,1.2499618530273438,0.27801513671875
1.2499618530273438,1.2421035766601562,0.3176116943359375
1.2499618530273438,1.2499618530273438,0.3519439697265625
1.2499618530273438,1.2499618530273438,0.3768157958984375
1.2499618530273438,1.2499618530273438,0.2957916259765625
1.2499618530273438,1.2499618530273438,0.186004638671875
1.2499618530273438,1.2499618530273438,0.12176513671875
1.2499618530273438,1.2499618530273438,0.0885009765625
1.2499618530273438,1.2499618530273438,-0.001983642578125
1.2499618530273438,1.2499618530273438,-0.149078369140625
1.2499618530273438,1.2499618530273438,-0.159759521484375
1.2499618530273438,1.2499618530273438,-0.256195068359375
1.2499618530273438,1.2499618530273438,-0.307159423828125
1.2499618530273438,1.2499618530273438,-0.446624755859375
1.2499618530273438,1.2499618530273438,-0.4036712646484375
1.2371444702148438,1.2499618530273438,-0.465850830078125
1.2499618530273438,1.2499618530273438,-0.35125732421875
1.2499618530273438,1.2499618530273438,-0.2510833740234375
1.2499618530273438,1.2499618530273438,-0.2568817138671875
1.2499618530273438,1.2499618530273438,-0.2541351318359375
1.2499618530273438,1.2499618530273438,-0.0222015380859375
1.2499618530273438,1.2499618530273438,0.0682830810546875
1.2499618530273438,1.2499618530273438,0.02838134765625
1.2499618530273438,1.2499618530273438,0.103759765625
1.2499618530273438,1.2499618530273438,0.2481842041015625
1.2499618530273438,1.2499618530273438,0.145263671875
1.2499618530273438,1.2499618530273438,0.2382659912109375
1.2499618530273438,1.2499618530273438,0.22918701171875
1.2499618530273438,1.2499618530273438,0.3218841552734375
1.2499618530273438,1.2499618530273438,0.24261474609375
1.2499618530273438,1.2499618530273438,0.277862548828125
1.2499618530273438,1.2499618530273438,0.3278350830078125
1.2499618530273438,1.2499618530273438,0.2925872802734375
1.2499618530273438,1.2499618530273438,0.3354644775390625
1.2499618530273438,1.2499618530273438,0.3588104248046875
1.2499618530273438,1.2499618530273438,0.25360107421875
1.2499618530273438,1.2499618530273438,0.166473388671875
1.2499618530273438,1.2499618530273438,0.0566864013671875
1.2499618530273438,1.2499618530273438,-0.03143310546875
1.2499618530273438,1.2499618530273438,-0.1415252685546875
1.2499618530273438,1.2499618530273438,-0.184783935546875
1.2499618530273438,1.2499618530273438,-0.2350616455078125
1.2499618530273438,1.2499618530273438,-0.3912353515625
1.2499618530273438,1.2499618530273438,-0.3696441650390625
1.2499618530273438,1.2499618530273438,-0.4390716552734375
1.2020111083984375,1.2499618530273438,-0.4715728759765625
1.2499618530273438,1.2499618530273438,-0.3813934326171875
1.2499618530273438,1.2499618530273438,-0.279693603515625
1.2499618530273438,1.2499618530273438,-0.2596282958984375
1.2499618530273438,1.2499618530273438,-0.187530517578125
1.2499618530273438,1.2499618530273438,-0.0748443603515625
1.2499618530273438,1.2499618530273438,-0.0658416748046875
1.2499618530273438,1.2499618530273438,-0.015411376953125
1.2499618530273438,1.2499618530273438,0.096588134765625
1.2499618530273438,1.2499618530273438,0.2093505859375
1.2499618530273438,1.2499618530273438,0.21026611328125
1.2499618530273438,1.2499618530273438,0.256195068359375
1.2499618530273438,1.2499618530273438,0.305023193359375
1.2499618530273438,1.2499618530273438,0.263671875
1.2499618530273438,1.2499618530273438,0.2579498291015625
1.2499618530273438,1.2146377563476562,0.3073883056640625
1.2499618530273438,1.2499618530273438,0.3519439697265625
1.2499618530273438,1.2499618530273438,0.3082275390625
1.2499618530273438,1.2499618530273438,0.3646087646484375
1.2499618530273438,1.2499618530273438,0.3513336181640625
1.2499618530273438,1.2499618530273438,0.1981353759765625
1.2499618530273438,1.2499618530273438,0.1470947265625
1.2499618530273438,1.2499618530273438,0.095062255859375
1.2499618530273438,1.2499618530273438,-0.1444244384765625
1.2499618530273438,1.2499618530273438,-0.1564788818359375
1.2499618530273438,1.2499618530273438,-0.149993896484375
1.2499618530273438,1.2499618530273438,-0.2703094482421875
1.2499618530273438,1.2499618530273438,-0.3826904296875
1.2499618530273438,1.2499618530273438,-0.466461181640625
1.2499618530273438,1.2499618530273438,-0.3990936279296875
1.1598968505859375,1.22955322265625,-0.485687255859375
1.2499618530273438,1.2499618530273438,-0.34454345703125
1.2499618530273438,1.2499618530273438,-0.286102294921875
1.2499618530273438,1.2499618530273438,-0.3063201904296875
1.2499618530273438,1.2499618530273438,-0.2317047119140625
1.2499618530273438,1.2499618530273438,-0.029449462890625
1.2499618530273438,1.2499618530273438,-0.01129150390625
1.2499618530273438,1.2499618530273438,-0.057525634765625
1.2499618530273438,1.2499618530273438,0.203857421875
1.2499618530273438,1.2499618530273438,0.2127838134765625
1.2499618530273438,1.2499618530273438,0.2079010009765625
1.2499618530273438,1.2499618530273438,0.2008056640625
1.2499618530273438,1.2499618530273438,0.2623748779296875
1.2499618530273438,1.2499618530273438,0.25482177734375
1.2499618530273438,1.2499618530273438,0.21575927734375
1.2491989135742188,1.1805343627929688,0.317535400390625
1.2499618530273438,1.2499618530273438,0.3302001953125
1.2499618530273438,1.2499618530273438,0.3128814697265625
1.2499618530273438,1.2499618530273438,0.3936767578125
1.2499618530273438,1.2499618530273438,0.3350830078125
1.2499618530273438,1.2499618530273438,0.2130889892578125
1.2499618530273438,1.2499618530273438,0.111541748046875
1.2499618530273438,1.2499618530273438,0.149688720703125
1.2499618530273438,1.2499618530273438,-0.00579833984375
1.2499618530273438,1.2499618530273438,-0.074310302734375
1.2499618530273438,1.2499618530273438,-0.128936767578125
1.2499618530273438,1.2499618530273438,-0.30487060546875
1.2499618530273438,1.2499618530273438,-0.364990234375
1.2499618530273438,1.2499618530273438,-0.4781341552734375
1.2499618530273438,1.2499618530273438,-0.4138946533203125
1.1354446411132812,1.1908340454101562,-0.44342041015625
1.2499618530273438,1.2499618530273438,-0.36773681640625
1.2499618530273438,1.2499618530273438,-0.333404541015625
1.2499618530273438,1.2499618530273438,-0.275421142578125
1.2499618530273438,1.2499618530273438,-0.2034759521484375
1.2499618530273438,1.2499618530273438,-0.02105712890625
1.2499618530273438,1.2499618530273438,-0.0567626953125
1.2499618530273438,1.2499618530273438,-0.0289154052734375
1.2499618530273438,1.2499618530273438,0.1512908935546875
1.2499618530273438,1.2499618530273438,0.20721435546875
1.2499618530273438,1.2499618530273438,0.21697998046875
1.2499618530273438,1.2499618530273438,0.2274322509765625
1.2499618530273438,1.2499618530273438,0.2730560302734375
1.2499618530273438,1.2499618530273438,0.2779388427734375
1.2499618530273438,1.2499618530273438,0.2490234375
1.2002182006835938,1.13006591796875,0.3115081787109375
1.2499618530273438,1.2499618530273438,0.308380126953125
1.2499618530273438,1.2499618530273438,0.2930450439453125
1.2499618530273438,1.2499618530273438,0.3495025634765625
1.2499618530273438,1.2499618530273438,0.276641845703125
1.2499618530273438,1.2499618530273438,0.24993896484375
1.2499618530273438,1.2499618530273438,0.1383209228515625
1.2499618530273438,1.2499618530273438,0.056610107421875
1.2499618530273438,1.2499618530273438,-0.0690460205078125
1.2499618530273438,1.2499618530273438,-0.141143798828125
1.2499618530273438,1.2499618530273438,-0.1554107666015625
1.2499618530273438,1.2499618530273438,-0.2857208251953125
1.2499618530273438,1.2499618530273438,-0.395050048828125
1.2499618530273438,1.2499618530273438,-0.4517364501953125
1.2499618530273438,1.2499618530273438,-0.442657470703125
1.1087417602539062,1.1758804321289062,-0.4592132568359375
1.2499618530273438,1.2499618530273438,-0.3755950927734375
1.2499618530273438,1.2499618530273438,-0.29205322265625
1.2499618530273438,1.2499618530273438,-0.382080078125
1.2499618530273438,1.2499618530273438,-0.065155029296875
1.2499618530273438,1.2499618530273438,-0.135955810546875
1.2499618530273438,1.2499618530273438,0.0018310546875
1.2499618530273438,1.2499618530273438,-0.07232666015625
1.2499618530273438,1.2499618530273438,0.0980377197265625
1.2499618530273438,1.2499618530273438,0.1963043212890625
1.2499618530273438,1.2499618530273438,0.23773193359375
1.2499618530273438,1.2499618530273438,0.29510498046875
1.2499618530273438,1.2499618530273438,0.333099365234375
1.2499618530273438,1.2499618530273438,0.2721405029296875
1.2499618530273438,1.2499618530273438,0.214996337890625
1.1638641357421875,1.08612060546875,0.316314697265625
1.2499618530273438,1.2499618530273438,0.2471160888671875
1.2499618530273438,1.2499618530273438,0.27801513671875
1.2499618530273438,1.2499618530273438,0.3417205810546875
1.2499618530273438,1.2499618530273438,0.339813232421875
1.2499618530273438,1.2499618530273438,0.18341064453125
1.2499618530273438,1.2499618530273438,0.17852783203125
1.2499618530273438,1.2499618530273438,0.048675537109375
1.2499618530273438,1.2499618530273438,-0.061798095703125
1.2499618530273438,1.2499618530273438,-0.1178741455078125
1.2499618530273438,1.2499618530273438,-0.17242431640625
1.2499618530273438,1.2499618530273438,-0.278167724609375
1.2499618530273438,1.2499618530273438,-0.4074859619140625
1.2499618530273438,1.2499618530273438,-0.413360595703125
1.2499618530273438,1.2499618530273438,-0.4430389404296875
1.0941696166992188,1.1578750610351562,-0.431671142578125
1.2499618530273438,1.2499618530273438,-0.35858154296875
1.2499618530273438,1.2499618530273438,-0.3128814697265625
1.2499618530273438,1.2499618530273438,-0.24688720703125
1.2499618530273438,1.2499618530273438,-0.145263671875
1.2499618530273438,1.2499618530273438,-0.1010894775390625
1.2499618530273438,1.2499618530273438,0.0008392333984375
1.2499618530273438,1.2499618530273438,0.0405120849609375
1.2499618530273438,1.2499618530273438,0.1261138916015625
1.2499618530273438,1.2499618530273438,0.1873779296875
1.2499618530273438,1.2499618530273438,0.2557373046875
1.2499618530273438,1.2499618530273438,0.231475830078125
1.2499618530273438,1.2499618530273438,0.28533935546875
1.2499618530273438,1.2499618530273438,0.2587127685546875
1.2499618530273438,1.2499618530273438,0.2545928955078125
1.1390304565429688,1.0662078857421875,0.28411865234375
1.2499618530273438,1.2499618530273438,0.286712646484375
1.2499618530273438,1.2499618530273438,0.42236328125
1.2499618530273438,1.2499618530273438,0.4674530029296875
1.2499618530273438,1.2499618530273438,0.44525146484375
1.2499618530273438,1.2499618530273438,0.252532958984375
1.2499618530273438,1.2499618530273438,0.2679443359375
1.2499618530273438,1.2499618530273438,0.150909423828125
1.2499618530273438,1.2499618530273438,-0.05157470703125
1.2499618530273438,1.2499618530273438,-0.1102447509765625
1.2499618530273438,1.2499618530273438,-0.18280029296875
1.2499618530273438,1.2499618530273438,-0.2822113037109375
1.2499618530273438,1.2499618530273438,-0.401611328125
1.2499618530273438,1.2499618530273438,-0.4485321044921875
1.2499618530273438,1.2499618530273438,-0.3961181640625
1.0806655883789062,1.141357421875,-0.467376708984375
1.2499618530273438,1.2499618530273438,-0.363616943359375
1.2499618530273438,1.2499618530273438,-0.345458984375
1.2499618530273438,1.2499618530273438,-0.3334808349609375
1.2499618530273438,1.2499618530273438,-0.1702880859375
1.2499618530273438,1.2499618530273438,-0.038909912109375
1.2499618530273438,1.2499618530273438,0.01129150390625
1.2499618530273438,1.2499618530273438,-0.0096893310546875
1.2499618530273438,1.2499618530273438,0.1702880859375
1.2499618530273438,1.2499618530273438,0.1932525634765625
1.2499618530273438,1.2499618530273438,0.187225341796875
1.2499618530273438,1.2499618530273438,0.2130889892578125
1.2499618530273438,1.2499618530273438,0.263824462890625
1.2499618530273438,1.2499618530273438,0.29998779296875
1.2499618530273438,1.2499618530273438,0.2423858642578125
1.09771728515625,1.0554122924804688,0.320587158203125
1.2499618530273438,1.2499618530273438,0.283203125
1.2499618530273438,1.2499618530273438,0.311431884765625
1.2499618530273438,1.2499618530273438,0.4083251953125
1.2499618530273438,1.2499618530273438,0.394134521484375
1.2499618530273438,1.2499618530273438,0.203857421875
1.2499618530273438,1.2499618530273438,0.2072906494140625
1.2499618530273438,1.2499618530273438,0.154571533203125
1.2499618530273438,1.2499618530273438,-0.102081298828125
1.2499618530273438,1.2499618530273438,-0.0757598876953125
1.2499618530273438,1.2499618530273438,-0.184478759765625
1.2499618530273438,1.2499618530273438,-0.235137939453125
1.2499618530273438,1.2499618530273438,-0.3781890869140625
1.2499618530273438,1.2499618530273438,-0.443267822265625
1.2499618530273438,1.2499618530273438,-0.4148101806640625
1.0652542114257812,1.113739013671875,-0.493316650390625
1.2499618530273438,1.2499618530273438,-0.3557586669921875
1.2499618530273438,1.2499618530273438,-0.2902984619140625
1.2499618530273438,1.2499618530273438,-0.2587890625
1.2499618530273438,1.2499618530273438,-0.2544403076171875
1.2499618530273438,1.2499618530273438,-0.144805908203125
1.2499618530273438,1.2499618530273438,-0.0295257568359375
1.2499618530273438,1.2499618530273438,0.06866455078125
1.2499618530273438,1.2499618530273438,0.0794219970703125
1.2499618530273438,1.2499618530273438,0.2309417724609375
1.2499618530273438,1.2499618530273438,0.1947784423828125
1.2499618530273438,1.2499618530273438,0.173797607421875
1.2499618530273438,1.2499618530273438,0.26824951171875
1.2499618530273438,1.2499618530273438,0.2684783935546875
1.2499618530273438,1.2499618530273438,0.2248382568359375
1.0811614990234375,1.0164260864257812,0.3447723388671875
1.2499618530273438,1.2499618530273438,0.307159423828125
1.2499618530273438,1.2499618530273438,0.3209686279296875
1.2499618530273438,1.2499618530273438,0.4120635986328125
1.2499618530273438,1.2499618530273438,0.3194427490234375
1.2499618530273438,1.2499618530273438,0.1068115234375
1.2499618530273438,1.2499618530273438,0.207672119140625
1.2499618530273438,1.2499618530273438,0.11627197265625
1.2499618530273438,1.2499618530273438,-0.123291015625
1.2499618530273438,1.2499618530273438,-0.16571044921875
1.2499618530273438,1.2499618530273438,-0.167999267578125
1.2499618530273438,1.2499618530273438,-0.33416748046875
1.2499618530273438,1.2499618530273438,-0.3899383544921875
1.2499618530273438,1.2499618530273438,-0.4632568359375
1.2499618530273438,1.2499618530273438,-0.438079833984375
1.0322189331054688,1.1082839965820312,-0.4563140869140625
1.2499618530273438,1.2499618530273438,-0.2774810791015625
1.2499618530273438,1.2499618530273438,-0.3054046630859375
1.2499618530273438,1.2499618530273438,-0.32470703125
1.2499618530273438,1.2499618530273438,-0.2032470703125
1.2499618530273438,1.2499618530273438,-0.057373046875
1.2499618530273438,1.2499618530273438,-0.056915283203125
1.2499618530273438,1.2499618530273438,0.0403594970703125
1.2499618530273438,1.2499618530273438,0.1668548583984375
1.2499618530273438,1.2499618530273438,0.2587127685546875
1.2499618530273438,1.2499618530273438,0.164947509765625
1.2499618530273438,1.2499618530273438,0.283050537109375
1.2499618530273438,1.2499618530273438,0.2094268798828125
1.2499618530273438,1.2499618530273438,0.273590087890625
1.2499618530273438,1.2499618530273438,0.2182769775390625
1.0452651977539062,1.0178756713867188,0.3179931640625
1.2499618530273438,1.2499618530273438,0.29876708984375
1.2499618530273438,1.2499618530273438,0.3401947021484375
1.2499618530273438,1.2499618530273438,0.417633056640625
1.2499618530273438,1.2499618530273438,0.3058624267578125
1.2499618530273438,1.2499618530273438,0.1938629150390625
1.2499618530273438,1.2499618530273438,0.06072998046875
1.2499618530273438,1.2499618530273438,0.096282958984375
1.2499618530273438,1.2499618530273438,-0.045013427734375
1.2499618530273438,1.2499618530273438,-0.14404296875
1.2499618530273438,1.2499618530273438,-0.1596832275390625
1.2499618530273438,1.2499618530273438,-0.2759552001953125
1.2499618530273438,1.2499618530273438,-0.3894805908203125
1.2499618530273438,1.2499618530273438,-0.4778289794921875
1.2499618530273438,1.2499618530273438,-0.38818359375
0.9996795654296875,1.07452392578125,-0.4931640625
