Voltage.AUX_RLicht,Voltage.AUX_LLicht,Voltage.AUX_SchalterPlexus
1.2499618530273438,1.2499618530273438,0.2370452880859375
1.2499618530273438,1.2499618530273438,0.295867919921875
1.2499618530273438,1.2499618530273438,0.0937652587890625
1.2499618530273438,1.2499618530273438,0.02532958984375
1.2499618530273438,1.2499618530273438,-0.2386474609375
1.2499618530273438,1.2499618530273438,-0.0978851318359375
1.2499618530273438,1.2499618530273438,-0.187225341796875
1.2499618530273438,1.2499618530273438,-0.3730010986328125
1.2499618530273438,1.2499618530273438,-0.412139892578125
1.2499618530273438,1.2499618530273438,-0.4496002197265625
1.2499618530273438,1.2499618530273438,-0.4241180419921875
0.9710693359375,1.0226821899414062,-0.3598785400390625
1.2499618530273438,1.2499618530273438,-0.264892578125
1.2499618530273438,1.2499618530273438,-0.212554931640625
1.2499618530273438,1.2499618530273438,-0.2680206298828125
1.2499618530273438,1.2499618530273438,-0.17425537109375
1.2499618530273438,1.2499618530273438,-0.030517578125
1.2499618530273438,1.2499618530273438,-0.0521087646484375
1.2499618530273438,1.2499618530273438,0.08880615234375
1.2499618530273438,1.2499618530273438,0.2434539794921875
1.2499618530273438,1.2499618530273438,0.243682861328125
1.2499618530273438,1.2499618530273438,0.1987457275390625
1.2499618530273438,1.2499618530273438,0.2838897705078125
1.2499618530273438,1.2499618530273438,0.2672576904296875
1.2499618530273438,1.2499618530273438,0.2508544921875
1.2499618530273438,1.2499618530273438,0.269317626953125
0.9354019165039062,0.9012985229492188,0.3204345703125
1.2499618530273438,1.2499618530273438,0.339813232421875
1.2499618530273438,1.2499618530273438,0.29052734375
1.2499618530273438,1.2499618530273438,0.399169921875
1.2499618530273438,1.2499618530273438,0.3354644775390625
1.2499618530273438,1.2499618530273438,0.2165985107421875
1.2499618530273438,1.2499618530273438,0.133209228515625
1.2499618530273438,1.2499618530273438,0.1041412353515625
1.2499618530273438,1.2499618530273438,-0.154266357421875
1.2499618530273438,1.2499618530273438,-0.1860809326171875
1.2499618530273438,1.2499618530273438,-0.20538330078125
1.2499618530273438,1.2499618530273438,-0.4077911376953125
1.2499618530273438,1.2499618530273438,-0.3911590576171875
1.2499618530273438,1.2499618530273438,-0.440826416015625
1.2499618530273438,1.2499618530273438,-0.45928955078125
0.9880447387695312,1.0194778442382812,-0.4412078857421875
1.2499618530273438,1.2499618530273438,-0.2222442626953125
1.2499618530273438,1.2499618530273438,-0.25421142578125
1.2499618530273438,1.2499618530273438,-0.265655517578125
1.2499618530273438,1.2499618530273438,-0.1119232177734375
1.2499618530273438,1.2499618530273438,0.0347137451171875
1.2499618530273438,1.2499618530273438,-0.001068115234375
1.2499618530273438,1.2499618530273438,0.034027099609375
1.2499618530273438,1.2499618530273438,0.215606689453125
1.2499618530273438,1.2499618530273438,0.239105224609375
1.2499618530273438,1.2499618530273438,0.18280029296875
1.2499618530273438,1.2499618530273438,0.256500244140625
1.2499618530273438,1.2499618530273438,0.217437744140625
1.2499618530273438,1.2499618530273438,0.2278900146484375
1.2499618530273438,1.2499618530273438,0.269775390625
0.9607315063476562,0.9235763549804688,0.2628326416015625
1.2499618530273438,1.2499618530273438,0.267181396484375
1.2499618530273438,1.2499618530273438,0.3070831298828125
1.2499618530273438,1.2499618530273438,0.31494140625
1.2499618530273438,1.2499618530273438,0.2674102783203125
1.2499618530273438,1.2499618530273438,0.3151702880859375
1.2499618530273438,1.2499618530273438,0.1744842529296875
1.2499618530273438,1.2499618530273438,0.0844573974609375
1.2499618530273438,1.2499618530273438,-0.168609619140625
1.2499618530273438,1.2499618530273438,-0.0986480712890625
1.2499618530273438,1.2499618530273438,-0.2248382568359375
1.2499618530273438,1.2499618530273438,-0.3741455078125
1.2499618530273438,1.2499618530273438,-0.412445068359375
1.2499618530273438,1.2499618530273438,-0.4376220703125
1.2499618530273438,1.2499618530273438,-0.4360198974609375
0.9574127197265625,1.0370635986328125,-0.3777313232421875
1.2499618530273438,1.2499618530273438,-0.271148681640625
1.2499618530273438,1.2499618530273438,-0.2587890625
1.2499618530273438,1.2499618530273438,-0.3429412841796875
1.2499618530273438,1.2499618530273438,-0.14984130859375
1.2499618530273438,1.2499618530273438,0.0286102294921875
1.2499618530273438,1.2499618530273438,-0.0606536865234375
1.2499618530273438,1.2499618530273438,0.0353240966796875
1.2499618530273438,1.2499618530273438,0.2020263671875
1.2499618530273438,1.2499618530273438,0.21087646484375
1.2499618530273438,1.2499618530273438,0.16021728515625
1.2499618530273438,1.2499618530273438,0.2410125732421875
1.2499618530273438,1.2499618530273438,0.18707275390625
1.2499618530273438,1.2499618530273438,0.2471923828125
1.2499618530273438,1.2499618530273438,0.272674560546875
0.9751510620117188,0.9356307983398438,0.3409576416015625
1.2499618530273438,1.2499618530273438,0.292816162109375
1.2499618530273438,1.2499618530273438,0.305938720703125
1.2499618530273438,1.2499618530273438,0.4378509521484375
1.2499618530273438,1.2499618530273438,0.2840423583984375
1.2499618530273438,1.2499618530273438,0.17578125
1.2499618530273438,1.2499618530273438,0.2211761474609375
1.2499618530273438,1.2499618530273438,0.0441741943359375
1.2499618530273438,1.2499618530273438,-0.1287841796875
1.2499618530273438,1.2499618530273438,-0.1311492919921875
1.2499618530273438,1.2499618530273438,-0.1248931884765625
1.2499618530273438,1.2499618530273438,-0.4521942138671875
1.2499618530273438,1.2499618530273438,-0.4434967041015625
1.2499618530273438,1.2499618530273438,-0.44219970703125
1.2499618530273438,1.2499618530273438,-0.4473876953125
0.938568115234375,1.0107040405273438,-0.44891357421875
1.2499618530273438,1.2499618530273438,-0.3429412841796875
1.2499618530273438,1.2499618530273438,-0.1910400390625
1.2499618530273438,1.2499618530273438,-0.1755523681640625
1.2499618530273438,1.2499618530273438,-0.153350830078125
1.2499618530273438,1.2499618530273438,-0.0119781494140625
1.2499618530273438,1.2499618530273438,-0.0731658935546875
1.2499618530273438,1.2499618530273438,0.001220703125
1.2499618530273438,1.2499618530273438,0.2484130859375
1.2499618530273438,1.2499618530273438,0.178375244140625
1.2499618530273438,1.2499618530273438,0.19775390625
1.2499618530273438,1.2499618530273438,0.27557373046875
1.2499618530273438,1.2499618530273438,0.2736663818359375
1.2499618530273438,1.2499618530273438,0.276641845703125
1.2499618530273438,1.2499618530273438,0.2811431884765625
0.99700927734375,0.9409332275390625,0.371856689453125
1.2499618530273438,1.2499618530273438,0.2777099609375
1.2499618530273438,1.2499618530273438,0.3399658203125
1.2499618530273438,1.2499618530273438,0.4676055908203125
1.2499618530273438,1.2499618530273438,0.3093719482421875
1.2499618530273438,1.2499618530273438,0.16571044921875
1.2499618530273438,1.2499618530273438,0.1599884033203125
1.2499618530273438,1.2499618530273438,0.059051513671875
1.2499618530273438,1.2499618530273438,-0.0891876220703125
1.2499618530273438,1.2499618530273438,-0.1934051513671875
1.2499618530273438,1.2499618530273438,-0.18341064453125
1.2499618530273438,1.2499618530273438,-0.3960418701171875
1.2499618530273438,1.2499618530273438,-0.3943634033203125
1.2499618530273438,1.2499618530273438,-0.489654541015625
1.2499618530273438,1.2499618530273438,-0.47149658203125
0.9600830078125,0.9982681274414062,-0.4331207275390625
1.2499618530273438,1.2499618530273438,-0.261077880859375
1.2499618530273438,1.2499618530273438,-0.255126953125
1.2499618530273438,1.2499618530273438,-0.360260009765625
1.2499618530273438,1.2499618530273438,-0.0827789306640625
1.2499618530273438,1.2499618530273438,-0.0177764892578125
1.2499618530273438,1.2499618530273438,0.0026702880859375
1.2499618530273438,1.2499618530273438,0.0391387939453125
1.2499618530273438,1.2499618530273438,0.2739715576171875
1.2499618530273438,1.2499618530273438,0.2208709716796875
1.2499618530273438,1.2499618530273438,0.1514434814453125
1.2499618530273438,1.2499618530273438,0.2561187744140625
1.2499618530273438,1.2499618530273438,0.2471923828125
1.2499618530273438,1.2499618530273438,0.27801513671875
1.2499618530273438,1.2499618530273438,0.309600830078125
0.9980010986328125,0.9610366821289062,0.2907562255859375
1.2499618530273438,1.2499618530273438,0.2215576171875
1.2499618530273438,1.2499618530273438,0.306549072265625
1.2499618530273438,1.2499618530273438,0.4453277587890625
1.2499618530273438,1.2499618530273438,0.2857208251953125
1.2499618530273438,1.2499618530273438,0.20355224609375
1.2499618530273438,1.2499618530273438,0.1888275146484375
1.2499618530273438,1.2499618530273438,0.0308990478515625
1.2499618530273438,1.2499618530273438,-0.110626220703125
1.2499618530273438,1.2499618530273438,-0.195159912109375
1.2499618530273438,1.2499618530273438,-0.140380859375
1.2499618530273438,1.2499618530273438,-0.39886474609375
1.2499618530273438,1.2499618530273438,-0.406951904296875
1.2499618530273438,1.2499618530273438,-0.449066162109375
1.2499618530273438,1.2499618530273438,-0.4192352294921875
0.9438705444335938,0.9975433349609375,-0.401611328125
1.2499618530273438,1.2499618530273438,-0.2806854248046875
1.2499618530273438,1.2499618530273438,-0.230712890625
1.2499618530273438,1.2499618530273438,-0.241546630859375
1.2499618530273438,1.2499618530273438,-0.0499725341796875
1.2499618530273438,1.2499618530273438,0.0164031982421875
1.2499618530273438,1.2499618530273438,-0.063934326171875
1.2499618530273438,1.2499618530273438,0.0669097900390625
1.2499618530273438,1.2499618530273438,0.27008056640625
1.2499618530273438,1.2499618530273438,0.174560546875
1.2499618530273438,1.2499618530273438,0.090179443359375
1.2499618530273438,1.2499618530273438,0.2864837646484375
1.2499618530273438,1.2499618530273438,0.27618408203125
1.2499618530273438,1.2499618530273438,0.2730560302734375
1.2499618530273438,1.2499618530273438,0.3168487548828125
1.0193252563476562,0.9656143188476562,0.341339111328125
1.2499618530273438,1.2499618530273438,0.30303955078125
1.2499618530273438,1.2499618530273438,0.2569580078125
1.2499618530273438,1.2499618530273438,0.4506683349609375
1.2499618530273438,1.2499618530273438,0.2829742431640625
1.2499618530273438,1.2499618530273438,0.2181243896484375
1.2499618530273438,1.2499618530273438,0.177001953125
1.2499618530273438,1.2499618530273438,0.0270843505859375
1.2499618530273438,1.2499618530273438,-0.164794921875
1.2499618530273438,1.2499618530273438,-0.185546875
1.2499618530273438,1.2499618530273438,-0.1544189453125
1.2499618530273438,1.2499618530273438,-0.366058349609375
1.2499618530273438,1.2499618530273438,-0.437469482421875
1.2499618530273438,1.2499618530273438,-0.4326629638671875
1.2499618530273438,1.2499618530273438,-0.4193115234375
0.9815597534179688,1.0310745239257812,-0.3971099853515625
1.2499618530273438,1.2499618530273438,-0.3046417236328125
1.2499618530273438,1.2499618530273438,-0.2248382568359375
1.2499618530273438,1.2499618530273438,-0.30426025390625
1.2499618530273438,1.2499618530273438,-0.1024627685546875
1.2499618530273438,1.2499618530273438,-0.02716064453125
1.2499618530273438,1.2499618530273438,-0.0138092041015625
1.2499618530273438,1.2499618530273438,0.0484466552734375
1.2499618530273438,1.2499618530273438,0.272979736328125
1.2499618530273438,1.2499618530273438,0.1555633544921875
1.2499618530273438,1.2499618530273438,0.1424407958984375
1.2499618530273438,1.2499618530273438,0.2944183349609375
1.2499618530273438,1.2499618530273438,0.30670166015625
1.2499618530273438,1.2499618530273438,0.237274169921875
1.2499618530273438,1.2499618530273438,0.2808380126953125
1.0247421264648438,0.979766845703125,0.29022216796875
1.2499618530273438,1.2499618530273438,0.2801513671875
1.2499618530273438,1.2499618530273438,0.3765869140625
1.2499618530273438,1.2499618530273438,0.491485595703125
1.2499618530273438,1.2499618530273438,0.2754974365234375
1.2499618530273438,1.2499618530273438,0.1812744140625
1.2499618530273438,1.2499618530273438,0.183868408203125
1.2499618530273438,1.2499618530273438,0.024261474609375
1.2499618530273438,1.2499618530273438,-0.1503753662109375
1.2499618530273438,1.2499618530273438,-0.1241302490234375
1.2499618530273438,1.2499618530273438,-0.167083740234375
1.2499618530273438,1.2499618530273438,-0.393218994140625
1.2499618530273438,1.2499618530273438,-0.4186248779296875
1.2499618530273438,1.2499618530273438,-0.42449951171875
1.2499618530273438,1.2499618530273438,-0.4640960693359375
0.98419189453125,1.0658645629882812,-0.4174041748046875
1.2499618530273438,1.2499618530273438,-0.2667236328125
1.2499618530273438,1.2499618530273438,-0.22735595703125
1.2499618530273438,1.2499618530273438,-0.1894378662109375
1.2499618530273438,1.2499618530273438,-0.1338958740234375
1.2499618530273438,1.2499618530273438,0.0566864013671875
1.2499618530273438,1.2499618530273438,-0.0290679931640625
1.2499618530273438,1.2499618530273438,0.0592803955078125
1.2499618530273438,1.2499618530273438,0.269317626953125
1.2499618530273438,1.2499618530273438,0.1983642578125
1.2499618530273438,1.2499618530273438,0.1871490478515625
1.2499618530273438,1.2499618530273438,0.2850341796875
1.2499618530273438,1.2499618530273438,0.2812957763671875
1.2499618530273438,1.2499618530273438,0.2141571044921875
1.2499618530273438,1.2499618530273438,0.2678680419921875
1.0163497924804688,0.9566879272460938,0.3095245361328125
1.2499618530273438,1.2499618530273438,0.2565765380859375
1.2499618530273438,1.2499618530273438,0.310516357421875
1.2499618530273438,1.2499618530273438,0.403594970703125
1.2499618530273438,1.2499618530273438,0.2057647705078125
1.2499618530273438,1.2499618530273438,0.1880645751953125
1.2499618530273438,1.2499618530273438,0.1116180419921875
1.2499618530273438,1.2499618530273438,-0.0070953369140625
1.2499618530273438,1.2499618530273438,-0.1633453369140625
1.2499618530273438,1.2499618530273438,-0.1779937744140625
1.2499618530273438,1.2499618530273438,-0.225830078125
1.2499618530273438,1.2499618530273438,-0.4331207275390625
1.2499618530273438,1.2499618530273438,-0.4686737060546875
1.2499618530273438,1.2499618530273438,-0.4940032958984375
1.2499618530273438,1.2499618530273438,-0.4647064208984375
0.9834671020507812,1.0693359375,-0.4254150390625
1.2499618530273438,1.2499618530273438,-0.323333740234375
1.2499618530273438,1.2499618530273438,-0.28350830078125
1.2499618530273438,1.2499618530273438,-0.2574920654296875
1.2499618530273438,1.2499618530273438,-0.0152587890625
1.2499618530273438,1.2499618530273438,0.01251220703125
1.2499618530273438,1.2499618530273438,-0.0653076171875
1.2499618530273438,1.2499618530273438,0.079345703125
1.2499618530273438,1.2499618530273438,0.2518463134765625
1.2499618530273438,1.2499618530273438,0.126953125
1.2499618530273438,1.2499618530273438,0.1273345947265625
1.2499618530273438,1.2499618530273438,0.2979278564453125
1.2499618530273438,1.2499618530273438,0.24871826171875
1.2499618530273438,1.2499618530273438,0.2677154541015625
1.2499618530273438,1.2499618530273438,0.2774810791015625
1.0122299194335938,0.955810546875,0.3012847900390625
1.2499618530273438,1.2499618530273438,0.268096923828125
1.2499618530273438,1.2499618530273438,0.3266143798828125
1.2499618530273438,1.2499618530273438,0.36834716796875
1.2499618530273438,1.2499618530273438,0.323028564453125
1.2499618530273438,1.2499618530273438,0.0833892822265625
1.2499618530273438,1.2499618530273438,0.19866943359375
1.2499618530273438,1.2499618530273438,-0.0383758544921875
1.2499618530273438,1.2499618530273438,-0.137786865234375
1.2499618530273438,1.2499618530273438,-0.179901123046875
1.2499618530273438,1.2499618530273438,-0.186004638671875
1.2499618530273438,1.2499618530273438,-0.37445068359375
1.2499618530273438,1.2499618530273438,-0.453643798828125
1.2499618530273438,1.2499618530273438,-0.4544830322265625
1.2499618530273438,1.2499618530273438,-0.417327880859375
1.0280609130859375,1.083831787109375,-0.40557861328125
1.2499618530273438,1.2499618530273438,-0.26031494140625
1.2499618530273438,1.2499618530273438,-0.275421142578125
1.2499618530273438,1.2499618530273438,-0.24261474609375
1.2499618530273438,1.2499618530273438,-0.1552581787109375
1.2499618530273438,1.2499618530273438,0.0025177001953125
1.2499618530273438,1.2499618530273438,-0.052947998046875
1.2499618530273438,1.2499618530273438,0.057525634765625
1.2499618530273438,1.2499618530273438,0.169525146484375
1.2499618530273438,1.2499618530273438,0.16845703125
1.2499618530273438,1.2499618530273438,0.1863861083984375
1.2499618530273438,1.2499618530273438,0.2770233154296875
1.2499618530273438,1.2499618530273438,0.394134521484375
1.2499618530273438,1.2499618530273438,0.220794677734375
1.2499618530273438,1.2499618530273438,0.2576446533203125
1.0027694702148438,0.9642410278320312,0.3403472900390625
1.2499618530273438,1.2499618530273438,0.2918243408203125
1.2499618530273438,1.2499618530273438,0.321502685546875
1.2499618530273438,1.2499618530273438,0.4073333740234375
1.2499618530273438,1.2499618530273438,0.262603759765625
1.2499618530273438,1.2499618530273438,0.191192626953125
1.2499618530273438,1.2499618530273438,0.1396942138671875
1.2499618530273438,1.2499618530273438,0.030364990234375
1.2499618530273438,1.2499618530273438,-0.160369873046875
1.2499618530273438,1.2499618530273438,-0.13519287109375
1.2499618530273438,1.2499618530273438,-0.1869964599609375
1.2499618530273438,1.2499618530273438,-0.35247802734375
1.2499618530273438,1.2499618530273438,-0.417633056640625
1.2499618530273438,1.2499618530273438,-0.4476165771484375
1.2499618530273438,1.2499618530273438,-0.4094696044921875
1.0476303100585938,1.1162185668945312,-0.4050445556640625
1.2499618530273438,1.2499618530273438,-0.2492523193359375
1.2499618530273438,1.2499618530273438,-0.257415771484375
1.2499618530273438,1.2499618530273438,-0.2863311767578125
1.2499618530273438,1.2499618530273438,-0.135498046875
1.2499618530273438,1.2499618530273438,-0.011444091796875
1.2499618530273438,1.2499618530273438,-0.0872802734375
1.2499618530273438,1.2499618530273438,0.079345703125
1.2499618530273438,1.2499618530273438,0.1395416259765625
1.2499618530273438,1.2499618530273438,0.1952362060546875
1.2499618530273438,1.2499618530273438,0.13641357421875
1.2499618530273438,1.2499618530273438,0.2294921875
1.2499618530273438,1.2499618530273438,0.25390625
1.2499618530273438,1.2499618530273438,0.212860107421875
1.2499618530273438,1.2499618530273438,0.29510498046875
0.996246337890625,0.9631729125976562,0.3105926513671875
1.2499618530273438,1.2499618530273438,0.2819061279296875
1.2499618530273438,1.2499618530273438,0.296783447265625
1.2499618530273438,1.2499618530273438,0.3751373291015625
1.2499618530273438,1.2499618530273438,0.219268798828125
1.2499618530273438,1.2499618530273438,0.17913818359375
1.2499618530273438,1.2499618530273438,0.13397216796875
1.2499618530273438,1.2499618530273438,-0.0489044189453125
1.2499618530273438,1.2499618530273438,-0.1316070556640625
1.2499618530273438,1.2499618530273438,-0.154876708984375
1.2499618530273438,1.2499618530273438,-0.2236175537109375
1.2499618530273438,1.2499618530273438,-0.4315948486328125
1.2499618530273438,1.2499618530273438,-0.3688812255859375
1.2499618530273438,1.2499618530273438,-0.411376953125
1.2499618530273438,1.2499618530273438,-0.45928955078125
1.0552597045898438,1.1349105834960938,-0.472412109375
1.2499618530273438,1.2499618530273438,-0.339202880859375
1.2499618530273438,1.2499618530273438,-0.2603912353515625
1.2499618530273438,1.2499618530273438,-0.2709197998046875
1.2499618530273438,1.2499618530273438,-0.124053955078125
1.2499618530273438,1.2499618530273438,0.0394439697265625
1.2499618530273438,1.2499618530273438,-0.0463104248046875
1.2499618530273438,1.2499618530273438,0.0762939453125
1.2499618530273438,1.2499618530273438,0.171356201171875
1.2499618530273438,1.2499618530273438,0.2416229248046875
1.2499618530273438,1.2499618530273438,0.145416259765625
1.2499618530273438,1.2499618530273438,0.2709197998046875
1.2499618530273438,1.2499618530273438,0.2399444580078125
1.2499618530273438,1.2499618530273438,0.222930908203125
1.2499618530273438,1.2499618530273438,0.2492523193359375
1.0561370849609375,0.996551513671875,0.3244781494140625
1.2499618530273438,1.2499618530273438,0.2678680419921875
1.2499618530273438,1.2499618530273438,0.3571319580078125
1.2499618530273438,1.2499618530273438,0.3861236572265625
1.2499618530273438,1.2499618530273438,0.1763916015625
1.2499618530273438,1.2499618530273438,0.1763916015625
1.2499618530273438,1.2499618530273438,0.2135467529296875
1.2499618530273438,1.2499618530273438,0.0176239013671875
1.2499618530273438,1.2499618530273438,-0.1230621337890625
1.2499618530273438,1.2499618530273438,-0.176239013671875
1.2499618530273438,1.2499618530273438,-0.26092529296875
1.2499618530273438,1.2499618530273438,-0.4146575927734375
1.2499618530273438,1.2499618530273438,-0.4042816162109375
1.2499618530273438,1.2499618530273438,-0.4341888427734375
1.2499618530273438,1.2499618530273438,-0.46173095703125
1.0930252075195312,1.1352157592773438,-0.4193115234375
1.2499618530273438,1.2499618530273438,-0.3096771240234375
1.2499618530273438,1.2499618530273438,-0.2690887451171875
1.2499618530273438,1.2499618530273438,-0.2030181884765625
1.2499618530273438,1.2499618530273438,-0.1665496826171875
1.2499618530273438,1.2499618530273438,0.03021240234375
1.2499618530273438,1.2499618530273438,-0.0135040283203125
1.2499618530273438,1.2499618530273438,0.0460052490234375
1.2499618530273438,1.2499618530273438,0.196533203125
1.2499618530273438,1.2499618530273438,0.189971923828125
1.2499618530273438,1.2499618530273438,0.1749420166015625
1.2499618530273438,1.2499618530273438,0.3006744384765625
1.2499618530273438,1.2499618530273438,0.27252197265625
1.2499618530273438,1.2499618530273438,0.2693939208984375
1.2499618530273438,1.2499618530273438,0.2948760986328125
1.07635498046875,1.04766845703125,0.334014892578125
1.2499618530273438,1.2499618530273438,0.2736663818359375
1.2499618530273438,1.2499618530273438,0.365753173828125
1.2499618530273438,1.2499618530273438,0.3912353515625
1.2499618530273438,1.2499618530273438,0.2883148193359375
1.2499618530273438,1.2499618530273438,0.206756591796875
1.2499618530273438,1.2499618530273438,0.221099853515625
1.2499618530273438,1.2499618530273438,-0.023193359375
1.2499618530273438,1.2499618530273438,-0.1445770263671875
1.2499618530273438,1.2499618530273438,-0.184783935546875
1.2499618530273438,1.2499618530273438,-0.1947784423828125
1.2499618530273438,1.2499618530273438,-0.3757476806640625
1.2499618530273438,1.2499618530273438,-0.431671142578125
1.2499618530273438,1.2499618530273438,-0.4461669921875
1.2499618530273438,1.2499618530273438,-0.504302978515625
1.1024856567382812,1.1754608154296875,-0.41046142578125
1.2499618530273438,1.2499618530273438,-0.2774810791015625
1.2499618530273438,1.2499618530273438,-0.2718353271484375
1.2499618530273438,1.2499618530273438,-0.25543212890625
1.2499618530273438,1.2499618530273438,-0.004730224609375
1.2499618530273438,1.2499618530273438,0.015869140625
1.2499618530273438,1.2499618530273438,-0.1241302490234375
1.2499618530273438,1.2499618530273438,0.1084136962890625
1.2499618530273438,1.2499618530273438,0.180816650390625
1.2499618530273438,1.2499618530273438,0.2910614013671875
1.2499618530273438,1.2499618530273438,0.1194000244140625
1.2499618530273438,1.2499618530273438,0.2521514892578125
1.2499618530273438,1.2499618530273438,0.22430419921875
1.2499618530273438,1.2499618530273438,0.2548980712890625
1.2499618530273438,1.2499618530273438,0.2736663818359375
1.1123275756835938,1.0697174072265625,0.31097412109375
1.2499618530273438,1.2499618530273438,0.3033447265625
1.2499618530273438,1.2499618530273438,0.355987548828125
1.2499618530273438,1.2499618530273438,0.3414154052734375
1.2499618530273438,1.2499618530273438,0.272369384765625
1.2499618530273438,1.2499618530273438,0.1306915283203125
1.2499618530273438,1.2499618530273438,0.2330780029296875
1.2499618530273438,1.2499618530273438,-0.0067138671875
1.2499618530273438,1.2499618530273438,-0.1798248291015625
1.2499618530273438,1.2499618530273438,-0.199432373046875
1.2499618530273438,1.2499618530273438,-0.1456451416015625
1.2499618530273438,1.2499618530273438,-0.3566741943359375
1.2499618530273438,1.2499618530273438,-0.4291534423828125
1.2499618530273438,1.2499618530273438,-0.405120849609375
1.2499618530273438,1.2499618530273438,-0.462188720703125
1.1185073852539062,1.1711502075195312,-0.421600341796875
1.2499618530273438,1.2499618530273438,-0.2801513671875
1.2499618530273438,1.2499618530273438,-0.3192138671875
1.2499618530273438,1.2499618530273438,-0.22369384765625
1.2499618530273438,1.2499618530273438,-0.1598358154296875
1.2499618530273438,1.2499618530273438,-0.01739501953125
1.2499618530273438,1.2499618530273438,-0.025634765625
1.2499618530273438,1.2499618530273438,0.0533294677734375
1.2499618530273438,1.2499618530273438,0.1580810546875
1.2499618530273438,1.2499618530273438,0.2072906494140625
1.2499618530273438,1.2499618530273438,0.1996612548828125
1.2499618530273438,1.2499618530273438,0.2840423583984375
1.2499618530273438,1.2499618530273438,0.246124267578125
1.2499618530273438,1.2499618530273438,0.291748046875
1.2499618530273438,1.2499618530273438,0.2984619140625
1.1265182495117188,1.0831069946289062,0.3249359130859375
1.2499618530273438,1.2499618530273438,0.279388427734375
1.2499618530273438,1.2499618530273438,0.34088134765625
1.2499618530273438,1.2499618530273438,0.419769287109375
1.2499618530273438,1.2499618530273438,0.2862548828125
1.2499618530273438,1.2499618530273438,0.191650390625
1.2499618530273438,1.2499618530273438,0.116119384765625
1.2499618530273438,1.2499618530273438,-0.0106048583984375
1.2499618530273438,1.2499618530273438,-0.0968170166015625
1.2499618530273438,1.2499618530273438,-0.1924896240234375
1.2499618530273438,1.2499618530273438,-0.148773193359375
1.2499618530273438,1.2499618530273438,-0.3995513916015625
1.2499618530273438,1.2499618530273438,-0.439910888671875
1.2499618530273438,1.2499618530273438,-0.431671142578125
1.2499618530273438,1.2499618530273438,-0.4937744140625
1.0931396484375,1.1626052856445312,-0.3975677490234375
1.2499618530273438,1.2499618530273438,-0.354461669921875
1.2499618530273438,1.2499618530273438,-0.2989959716796875
1.2499618530273438,1.2499618530273438,-0.2150726318359375
1.2499618530273438,1.2499618530273438,-0.11810302734375
1.2499618530273438,1.2499618530273438,-0.011138916015625
1.2499618530273438,1.2499618530273438,-0.0746917724609375
1.2499618530273438,1.2499618530273438,0.1068115234375
1.2499618530273438,1.2499618530273438,0.320281982421875
1.2499618530273438,1.2499618530273438,0.2660369873046875
1.2499618530273438,1.2499618530273438,0.18798828125
1.2499618530273438,1.2499618530273438,0.3022003173828125
1.2499618530273438,1.2499618530273438,0.2439117431640625
1.2499618530273438,1.2499618530273438,0.208282470703125
1.2499618530273438,1.2499618530273438,0.2809906005859375
1.1757659912109375,1.1262893676757812,0.3253173828125
1.2499618530273438,1.2499618530273438,0.31463623046875
1.2499618530273438,1.2499618530273438,0.3395843505859375
1.2499618530273438,1.2499618530273438,0.5367279052734375
1.2499618530273438,1.2499618530273438,0.27801513671875
1.2499618530273438,1.2499618530273438,0.1636505126953125
1.2499618530273438,1.2499618530273438,0.17120361328125
1.2499618530273438,1.2499618530273438,-0.06866455078125
1.2499618530273438,1.2499618530273438,-0.10986328125
1.2499618530273438,1.2499618530273438,-0.1220703125
1.2499618530273438,1.2499618530273438,-0.2048492431640625
1.2499618530273438,1.2499618530273438,-0.3790283203125
1.2499618530273438,1.2499618530273438,-0.3572845458984375
1.2499618530273438,1.2499618530273438,-0.462799072265625
1.2499618530273438,1.2499618530273438,-0.4454803466796875
1.1147308349609375,1.1805343627929688,-0.3797149658203125
1.2499618530273438,1.2499618530273438,-0.3215789794921875
1.2499618530273438,1.2499618530273438,-0.2787017822265625
1.2499618530273438,1.2499618530273438,-0.2663421630859375
1.2499618530273438,1.2499618530273438,-0.134124755859375
1.2499618530273438,1.2499618530273438,-0.0263214111328125
1.2499618530273438,1.2499618530273438,-0.063323974609375
1.2499618530273438,1.2499618530273438,0.020751953125
1.2499618530273438,1.2499618530273438,0.20416259765625
1.2499618530273438,1.2499618530273438,0.25299072265625
1.2499618530273438,1.2499618530273438,0.1345062255859375
1.2499618530273438,1.2499618530273438,0.2530670166015625
1.2499618530273438,1.2499618530273438,0.2713775634765625
1.2499618530273438,1.2499618530273438,0.2500152587890625
1.2499618530273438,1.2499618530273438,0.2906036376953125
1.1886215209960938,1.1380767822265625,0.290985107421875
1.2499618530273438,1.2499618530273438,0.299835205078125
1.2499618530273438,1.2499618530273438,0.3470611572265625
1.2499618530273438,1.2499618530273438,0.43182373046875
1.2499618530273438,1.2499618530273438,0.249481201171875
1.2499618530273438,1.2499618530273438,0.1879119873046875
1.2499618530273438,1.2499618530273438,0.155181884765625
1.2499618530273438,1.2499618530273438,-0.027923583984375
1.2499618530273438,1.2499618530273438,-0.079803466796875
1.2499618530273438,1.2499618530273438,-0.133819580078125
1.2499618530273438,1.2499618530273438,-0.2230072021484375
1.2499618530273438,1.2499618530273438,-0.415191650390625
1.2499618530273438,1.2499618530273438,-0.427093505859375
1.2499618530273438,1.2499618530273438,-0.40069580078125
1.2499618530273438,1.2499618530273438,-0.4766845703125
1.1285018920898438,1.2160110473632812,-0.3893280029296875
1.2499618530273438,1.2499618530273438,-0.313262939453125
1.2499618530273438,1.2499618530273438,-0.308074951171875
1.2499618530273438,1.2499618530273438,-0.1812744140625
1.2499618530273438,1.2499618530273438,-0.19378662109375
1.2499618530273438,1.2499618530273438,-0.070648193359375
1.2499618530273438,1.2499618530273438,-0.0844573974609375
1.2499618530273438,1.2499618530273438,0.1184844970703125
1.2499618530273438,1.2499618530273438,0.1873779296875
1.2499618530273438,1.2499618530273438,0.220947265625
1.2499618530273438,1.2499618530273438,0.1969146728515625
1.2499618530273438,1.2499618530273438,0.3092193603515625
1.2499618530273438,1.2499618530273438,0.2587890625
1.2499618530273438,1.2499618530273438,0.2779388427734375
1.2499618530273438,1.2499618530273438,0.3072357177734375
1.2061691284179688,1.1913299560546875,0.3194427490234375
1.2499618530273438,1.2499618530273438,0.2770233154296875
1.2499618530273438,1.2499618530273438,0.3647613525390625
1.2499618530273438,1.2499618530273438,0.34332275390625
1.2499618530273438,1.2499618530273438,0.3166961669921875
1.2499618530273438,1.2499618530273438,0.200653076171875
1.2499618530273438,1.2499618530273438,0.1648712158203125
1.2499618530273438,1.2499618530273438,0.0212860107421875
1.2499618530273438,1.2499618530273438,-0.093841552734375
1.2499618530273438,1.2499618530273438,-0.1708984375
1.2499618530273438,1.2499618530273438,-0.2103424072265625
1.2499618530273438,1.2499618530273438,-0.433502197265625
1.2499618530273438,1.2499618530273438,-0.42327880859375
1.2499618530273438,1.2499618530273438,-0.4442596435546875
1.2499618530273438,1.2499618530273438,-0.4364013671875
1.1961746215820312,1.2499618530273438,-0.4265594482421875
1.2499618530273438,1.2499618530273438,-0.2907562255859375
1.2499618530273438,1.2499618530273438,-0.29052734375
1.2499618530273438,1.2499618530273438,-0.2419281005859375
1.2499618530273438,1.2499618530273438,-0.116119384765625
1.2499618530273438,1.2499618530273438,-0.038299560546875
1.2499618530273438,1.2499618530273438,-0.033416748046875
1.2499618530273438,1.2499618530273438,0.14617919921875
1.2499618530273438,1.2499618530273438,0.265350341796875
1.2499618530273438,1.2499618530273438,0.227813720703125
1.2499618530273438,1.2499618530273438,0.1325225830078125
1.2499618530273438,1.2499618530273438,0.28961181640625
1.2499618530273438,1.2499618530273438,0.26397705078125
1.2499618530273438,1.2499618530273438,0.174407958984375
1.2499618530273438,1.2499618530273438,0.319671630859375
1.2353134155273438,1.1761093139648438,0.29327392578125
1.2499618530273438,1.2499618530273438,0.3144073486328125
1.2499618530273438,1.2499618530273438,0.3375244140625
1.2499618530273438,1.2499618530273438,0.418243408203125
1.2499618530273438,1.2499618530273438,0.297698974609375
1.2499618530273438,1.2499618530273438,0.1505279541015625
1.2499618530273438,1.2499618530273438,0.162200927734375
1.2499618530273438,1.2499618530273438,-0.0783538818359375
1.2499618530273438,1.2499618530273438,-0.1454925537109375
1.2499618530273438,1.2499618530273438,-0.15899658203125
1.2499618530273438,1.2499618530273438,-0.20416259765625
1.2499618530273438,1.2499618530273438,-0.4550933837890625
1.2499618530273438,1.2499618530273438,-0.4357147216796875
1.2499618530273438,1.2499618530273438,-0.4344940185546875
1.2499618530273438,1.2499618530273438,-0.462646484375
1.2307357788085938,1.2499618530273438,-0.3630828857421875
1.2499618530273438,1.2499618530273438,-0.2703857421875
1.2499618530273438,1.2499618530273438,-0.30120849609375
1.2499618530273438,1.2499618530273438,-0.2086639404296875
1.2499618530273438,1.2499618530273438,-0.0713348388671875
1.2499618530273438,1.2499618530273438,0.014495849609375
1.2499618530273438,1.2499618530273438,-0.018157958984375
1.2499618530273438,1.2499618530273438,0.1464080810546875
1.2499618530273438,1.2499618530273438,0.2181243896484375
1.2499618530273438,1.2499618530273438,0.241546630859375
1.2499618530273438,1.2499618530273438,0.16937255859375
1.2499618530273438,1.2499618530273438,0.24749755859375
1.2499618530273438,1.2499618530273438,0.2269744873046875
1.2499618530273438,1.2499618530273438,0.225372314453125
1.2499618530273438,1.2499618530273438,0.2725982666015625
1.22711181640625,1.1954879760742188,0.2960205078125
1.2499618530273438,1.2499618530273438,0.303497314453125
1.2499618530273438,1.2499618530273438,0.381622314453125
1.2499618530273438,1.2499618530273438,0.3582763671875
1.2499618530273438,1.2499618530273438,0.2178955078125
1.2499618530273438,1.2499618530273438,0.1171875
1.2499618530273438,1.2499618530273438,0.172119140625
1.2499618530273438,1.2499618530273438,-0.0621795654296875
1.2499618530273438,1.2499618530273438,-0.1270294189453125
1.2499618530273438,1.2499618530273438,-0.1625823974609375
1.2499618530273438,1.2499618530273438,-0.22491455078125
1.2499618530273438,1.2499618530273438,-0.4529571533203125
1.2499618530273438,1.2499618530273438,-0.508880615234375
1.2499618530273438,1.2499618530273438,-0.4195404052734375
1.2499618530273438,1.2499618530273438,-0.454559326171875
1.2370681762695312,1.2499618530273438,-0.37017822265625
1.2499618530273438,1.2499618530273438,-0.2548980712890625
1.2499618530273438,1.2499618530273438,-0.34576416015625
1.2499618530273438,1.2499618530273438,-0.2628326416015625
1.2499618530273438,1.2499618530273438,-0.1239013671875
1.2499618530273438,1.2499618530273438,0.0494384765625
1.2499618530273438,1.2499618530273438,-0.0115966796875
1.2499618530273438,1.2499618530273438,0.0717926025390625
1.2499618530273438,1.2499618530273438,0.196685791015625
1.2499618530273438,1.2499618530273438,0.193634033203125
1.2499618530273438,1.2499618530273438,0.1079559326171875
1.2499618530273438,1.2499618530273438,0.244140625
1.2499618530273438,1.2499618530273438,0.2423858642578125
1.2499618530273438,1.2499618530273438,0.221405029296875
1.2499618530273438,1.2499618530273438,0.2925872802734375
1.2237930297851562,1.1801528930664062,0.2991485595703125
1.2499618530273438,1.2499618530273438,0.2978515625
1.2499618530273438,1.2499618530273438,0.373077392578125
1.2499618530273438,1.2499618530273438,0.3824615478515625
1.2499618530273438,1.2499618530273438,0.276031494140625
1.2499618530273438,1.2499618530273438,0.0803375244140625
1.2499618530273438,1.2499618530273438,0.1906585693359375
1.2499618530273438,1.2499618530273438,0.001220703125
1.2499618530273438,1.2499618530273438,-0.14373779296875
1.2499618530273438,1.2499618530273438,-0.3072357177734375
1.2499618530273438,1.2499618530273438,-0.223846435546875
1.2499618530273438,1.2499618530273438,-0.400848388671875
1.2499618530273438,1.2499618530273438,-0.4326629638671875
1.2499618530273438,1.2499618530273438,-0.4145050048828125
1.2499618530273438,1.2499618530273438,-0.47515869140625
1.2415695190429688,1.2499618530273438,-0.391693115234375
1.2499618530273438,1.2499618530273438,-0.2718353271484375
1.2499618530273438,1.2499618530273438,-0.289154052734375
1.2499618530273438,1.2499618530273438,-0.224151611328125
1.2499618530273438,1.2499618530273438,-0.089874267578125
1.2499618530273438,1.2499618530273438,-0.081634521484375
1.2499618530273438,1.2499618530273438,-0.0200653076171875
1.2499618530273438,1.2499618530273438,0.1212310791015625
1.2499618530273438,1.2499618530273438,0.23956298828125
1.2499618530273438,1.2499618530273438,0.166168212890625
1.2499618530273438,1.2499618530273438,0.157318115234375
1.2499618530273438,1.2499618530273438,0.311431884765625
1.2499618530273438,1.2499618530273438,0.2173614501953125
1.2499618530273438,1.2499618530273438,0.2278900146484375
1.2499618530273438,1.2466812133789062,0.254364013671875
1.2174224853515625,1.168060302734375,0.2947235107421875
1.2499618530273438,1.2499618530273438,0.2463531494140625
1.2499618530273438,1.2499618530273438,0.352020263671875
1.2499618530273438,1.2499618530273438,0.4251861572265625
1.2499618530273438,1.2499618530273438,0.3495025634765625
1.2499618530273438,1.2499618530273438,0.164794921875
1.2499618530273438,1.2499618530273438,0.216217041015625
1.2499618530273438,1.2499618530273438,-0.0421905517578125
1.2499618530273438,1.2499618530273438,-0.1221466064453125
1.2499618530273438,1.2499618530273438,-0.1337432861328125
1.2499618530273438,1.2499618530273438,-0.1818084716796875
1.2499618530273438,1.2499618530273438,-0.44158935546875
1.2499618530273438,1.2499618530273438,-0.4767608642578125
1.2499618530273438,1.2499618530273438,-0.4212188720703125
1.2499618530273438,1.2499618530273438,-0.454254150390625
1.2499618530273438,1.2499618530273438,-0.4355621337890625
1.2499618530273438,1.2499618530273438,-0.25543212890625
1.2499618530273438,1.2499618530273438,-0.276947021484375
1.2499618530273438,1.2499618530273438,-0.2056884765625
1.2499618530273438,1.2499618530273438,-0.08819580078125
1.2499618530273438,1.2499618530273438,0.009307861328125
1.2499618530273438,1.2499618530273438,-0.0295257568359375
1.2499618530273438,1.2499618530273438,0.123138427734375
1.2499618530273438,1.2499618530273438,0.1564788818359375
1.2499618530273438,1.2499618530273438,0.211334228515625
1.2499618530273438,1.2499618530273438,0.1592254638671875
1.2499618530273438,1.2499618530273438,0.281219482421875
1.2499618530273438,1.2499618530273438,0.3009796142578125
1.2499618530273438,1.2499618530273438,0.248260498046875
1.2499618530273438,1.2499618530273438,0.2927398681640625
1.2499618530273438,1.1925125122070312,0.25390625
1.2499618530273438,1.2499618530273438,0.2785491943359375
1.2499618530273438,1.2499618530273438,0.4041290283203125
1.2499618530273438,1.2499618530273438,0.347900390625
1.2499618530273438,1.2499618530273438,0.3659820556640625
1.2499618530273438,1.2499618530273438,0.2130889892578125
1.2499618530273438,1.2499618530273438,0.1723480224609375
1.2499618530273438,1.2499618530273438,-0.09033203125
1.2499618530273438,1.2499618530273438,-0.1879119873046875
1.2499618530273438,1.2499618530273438,-0.2088165283203125
1.2499618530273438,1.2499618530273438,-0.20172119140625
1.2499618530273438,1.2499618530273438,-0.4102325439453125
1.2499618530273438,1.2499618530273438,-0.4056549072265625
1.2499618530273438,1.2499618530273438,-0.389862060546875
1.2499618530273438,1.2499618530273438,-0.4692840576171875
1.2499618530273438,1.2499618530273438,-0.430908203125
1.2499618530273438,1.2499618530273438,-0.2923583984375
1.2499618530273438,1.2499618530273438,-0.3168487548828125
1.2499618530273438,1.2499618530273438,-0.1026153564453125
1.2499618530273438,1.2499618530273438,-0.054168701171875
1.2499618530273438,1.2499618530273438,-0.0146484375
1.2499618530273438,1.2499618530273438,0.0283050537109375
1.2499618530273438,1.2499618530273438,0.1596832275390625
1.2499618530273438,1.2499618530273438,0.240478515625
1.2499618530273438,1.2499618530273438,0.2721405029296875
1.2499618530273438,1.2499618530273438,0.229034423828125
1.2499618530273438,1.2499618530273438,0.3113555908203125
1.2499618530273438,1.2499618530273438,0.289764404296875
1.2499618530273438,1.2499618530273438,0.1659393310546875
1.2499618530273438,1.2342071533203125,0.2989959716796875
1.2499618530273438,1.2390518188476562,0.2753448486328125
1.2499618530273438,1.2499618530273438,0.307769775390625
1.2499618530273438,1.2499618530273438,0.4009246826171875
1.2499618530273438,1.2499618530273438,0.460205078125
1.2499618530273438,1.2499618530273438,0.286712646484375
1.2499618530273438,1.2499618530273438,0.21270751953125
1.2499618530273438,1.2499618530273438,0.16815185546875
1.2499618530273438,1.2499618530273438,-0.040283203125
1.2499618530273438,1.2499618530273438,-0.1819610595703125
1.2499618530273438,1.2499618530273438,-0.2074432373046875
1.2499618530273438,1.2499618530273438,-0.2382659912109375
1.2499618530273438,1.2499618530273438,-0.383758544921875
1.2499618530273438,1.2499618530273438,-0.460052490234375
1.2499618530273438,1.2499618530273438,-0.4290008544921875
1.2214279174804688,1.2499618530273438,-0.4290771484375
1.2499618530273438,1.2499618530273438,-0.3920745849609375
1.2499618530273438,1.2499618530273438,-0.2448272705078125
1.2499618530273438,1.2499618530273438,-0.2852630615234375
1.2499618530273438,1.2499618530273438,-0.211181640625
1.2499618530273438,1.2499618530273438,-0.0954437255859375
1.2499618530273438,1.2499618530273438,-0.0124359130859375
1.2499618530273438,1.2499618530273438,-0.05096435546875
1.2499618530273438,1.2499618530273438,0.105743408203125
1.2499618530273438,1.2499618530273438,0.260162353515625
1.2499618530273438,1.2499618530273438,0.196685791015625
1.2499618530273438,1.2499618530273438,0.1459503173828125
1.2499618530273438,1.2499618530273438,0.225830078125
1.2499618530273438,1.2499618530273438,0.224761962890625
1.2499618530273438,1.2499618530273438,0.2459716796875
1.2499618530273438,1.22955322265625,0.27801513671875
1.2499618530273438,1.2499618530273438,0.3150177001953125
1.2499618530273438,1.2499618530273438,0.266876220703125
1.2499618530273438,1.2499618530273438,0.3635406494140625
1.2499618530273438,1.2499618530273438,0.42999267578125
1.2499618530273438,1.2499618530273438,0.24078369140625
1.2499618530273438,1.2499618530273438,0.2022552490234375
1.2499618530273438,1.2499618530273438,0.064239501953125
1.2499618530273438,1.2499618530273438,-0.0433349609375
1.2499618530273438,1.2499618530273438,-0.126190185546875
1.2499618530273438,1.2499618530273438,-0.13946533203125
1.2499618530273438,1.2499618530273438,-0.27801513671875
1.2499618530273438,1.2499618530273438,-0.400390625
1.2499618530273438,1.2499618530273438,-0.4552459716796875
1.2499618530273438,1.2499618530273438,-0.4262542724609375
1.2227630615234375,1.2499618530273438,-0.4433441162109375
1.2499618530273438,1.2499618530273438,-0.4454803466796875
1.2499618530273438,1.2499618530273438,-0.30059814453125
1.2499618530273438,1.2499618530273438,-0.29449462890625
1.2499618530273438,1.2499618530273438,-0.197601318359375
1.2499618530273438,1.2499618530273438,-0.1312255859375
1.2499618530273438,1.2499618530273438,0.00640869140625
1.2499618530273438,1.2499618530273438,-0.0930023193359375
1.2499618530273438,1.2499618530273438,0.062408447265625
1.2499618530273438,1.2499618530273438,0.252838134765625
1.2499618530273438,1.2499618530273438,0.23162841796875
1.2499618530273438,1.2499618530273438,0.1605987548828125
1.2499618530273438,1.2499618530273438,0.2880096435546875
1.2499618530273438,1.2499618530273438,0.3125762939453125
1.2499618530273438,1.2499618530273438,0.2569580078125
1.2499618530273438,1.2434768676757812,0.2483367919921875
1.2499618530273438,1.2499618530273438,0.285797119140625
1.2499618530273438,1.2499618530273438,0.3045654296875
1.2499618530273438,1.2499618530273438,0.3879547119140625
1.2499618530273438,1.2499618530273438,0.37567138671875
1.2499618530273438,1.2499618530273438,0.2277374267578125
1.2499618530273438,1.2499618530273438,0.149688720703125
1.2499618530273438,1.2499618530273438,0.11688232421875
1.2499618530273438,1.2499618530273438,-0.0042724609375
1.2499618530273438,1.2499618530273438,-0.1412200927734375
1.2499618530273438,1.2499618530273438,-0.1796722412109375
1.2499618530273438,1.2499618530273438,-0.20538330078125
1.2499618530273438,1.2499618530273438,-0.37841796875
1.2499618530273438,1.2499618530273438,-0.4305267333984375
1.2499618530273438,1.2499618530273438,-0.4708099365234375
1.2121963500976562,1.2499618530273438,-0.4384613037109375
1.2499618530273438,1.2499618530273438,-0.3516387939453125
1.2499618530273438,1.2499618530273438,-0.2594757080078125
1.2499618530273438,1.2499618530273438,-0.33111572265625
1.2499618530273438,1.2499618530273438,-0.2616119384765625
1.2499618530273438,1.2499618530273438,-0.040283203125
1.2499618530273438,1.2499618530273438,0.016021728515625
1.2499618530273438,1.2499618530273438,-0.069732666015625
1.2499618530273438,1.2499618530273438,0.1584625244140625
1.2499618530273438,1.2499618530273438,0.24658203125
1.2499618530273438,1.2499618530273438,0.21942138671875
1.2499618530273438,1.2499618530273438,0.2201080322265625
1.2499618530273438,1.2499618530273438,0.2773284912109375
1.2499618530273438,1.2499618530273438,0.2587890625
1.2499618530273438,1.2499618530273438,0.2274322509765625
1.2499618530273438,1.2207412719726562,0.2710723876953125
1.2499618530273438,1.2499618530273438,0.2849578857421875
1.2499618530273438,1.2499618530273438,0.2605438232421875
1.2499618530273438,1.2499618530273438,0.379791259765625
1.2499618530273438,1.2499618530273438,0.3517913818359375
1.2499618530273438,1.2499618530273438,0.2469635009765625
1.2499618530273438,1.2499618530273438,0.147247314453125
1.2499618530273438,1.2499618530273438,0.14007568359375
1.2499618530273438,1.2499618530273438,-0.0691986083984375
1.2499618530273438,1.2499618530273438,-0.13031005859375
1.2499618530273438,1.2499618530273438,-0.1727294921875
1.2499618530273438,1.2499618530273438,-0.222320556640625
1.2499618530273438,1.2499618530273438,-0.429534912109375
1.2499618530273438,1.2499618530273438,-0.52398681640625
1.2499618530273438,1.2499618530273438,-0.4111480712890625
1.2110519409179688,1.24969482421875,-0.510711669921875
1.2499618530273438,1.2499618530273438,-0.2773284912109375
1.2499618530273438,1.2499618530273438,-0.2239227294921875
1.2499618530273438,1.2499618530273438,-0.238037109375
1.2499618530273438,1.2499618530273438,-0.25146484375
1.2499618530273438,1.2499618530273438,-0.0392913818359375
1.2499618530273438,1.2499618530273438,-0.113372802734375
1.2499618530273438,1.2499618530273438,0.021514892578125
1.2499618530273438,1.2499618530273438,0.101165771484375
1.2499618530273438,1.2499618530273438,0.256195068359375
1.2499618530273438,1.2499618530273438,0.152435302734375
1.2499618530273438,1.2499618530273438,0.1959991455078125
1.2499618530273438,1.2499618530273438,0.30670166015625
1.2499618530273438,1.2499618530273438,0.235137939453125
1.2499618530273438,1.2499618530273438,0.2535247802734375
1.2499618530273438,1.1964797973632812,0.3017425537109375
1.2499618530273438,1.2499618530273438,0.3066253662109375
1.2499618530273438,1.2499618530273438,0.3353118896484375
1.2499618530273438,1.2499618530273438,0.3856658935546875
1.2499618530273438,1.2499618530273438,0.33599853515625
1.2499618530273438,1.2499618530273438,0.2679443359375
1.2499618530273438,1.2499618530273438,0.1679229736328125
1.2499618530273438,1.2499618530273438,0.0812530517578125
1.2499618530273438,1.2499618530273438,-0.0670623779296875
1.2499618530273438,1.2499618530273438,-0.14678955078125
1.2499618530273438,1.2499618530273438,-0.114593505859375
1.2499618530273438,1.2499618530273438,-0.1956939697265625
1.2499618530273438,1.2499618530273438,-0.4055023193359375
1.2499618530273438,1.2499618530273438,-0.45989990234375
1.2499618530273438,1.2499618530273438,-0.423736572265625
1.1906814575195312,1.238250732421875,-0.4499053955078125
1.2499618530273438,1.2499618530273438,-0.378265380859375
1.2499618530273438,1.2499618530273438,-0.283355712890625
1.2499618530273438,1.2499618530273438,-0.2767181396484375
1.2499618530273438,1.2499618530273438,-0.2764892578125
1.2499618530273438,1.2499618530273438,-0.1132965087890625
1.2499618530273438,1.2499618530273438,0.0679779052734375
1.2499618530273438,1.2499618530273438,0.025177001953125
1.2499618530273438,1.2499618530273438,0.2230072021484375
1.2499618530273438,1.2499618530273438,0.177459716796875
1.2499618530273438,1.2499618530273438,0.1781463623046875
1.2499618530273438,1.2499618530273438,0.1706695556640625
1.2499618530273438,1.2499618530273438,0.238189697265625
1.2499618530273438,1.2499618530273438,0.2629852294921875
1.2499618530273438,1.2499618530273438,0.224151611328125
1.2499618530273438,1.1815261840820312,0.331268310546875
1.2499618530273438,1.2499618530273438,0.3292083740234375
1.2499618530273438,1.2499618530273438,0.3680419921875
1.2499618530273438,1.2499618530273438,0.3787994384765625
1.2499618530273438,1.2499618530273438,0.3226470947265625
1.2499618530273438,1.2499618530273438,0.2254486083984375
1.2499618530273438,1.2499618530273438,0.145721435546875
1.2499618530273438,1.2499618530273438,0.1789093017578125
1.2499618530273438,1.2499618530273438,0.0390625
1.2499618530273438,1.2499618530273438,-0.15380859375
1.2499618530273438,1.2499618530273438,-0.190582275390625
1.2499618530273438,1.2499618530273438,-0.2105712890625
1.2499618530273438,1.2499618530273438,-0.447540283203125
1.2499618530273438,1.2499618530273438,-0.42327880859375
1.2499618530273438,1.2499618530273438,-0.4534149169921875
1.1719894409179688,1.2252044677734375,-0.42724609375
1.2499618530273438,1.2499618530273438,-0.3963470458984375
1.2499618530273438,1.2499618530273438,-0.301971435546875
1.2499618530273438,1.2499618530273438,-0.2803802490234375
1.2499618530273438,1.2499618530273438,-0.159149169921875
1.2499618530273438,1.2499618530273438,-0.084228515625
1.2499618530273438,1.2499618530273438,-0.06072998046875
1.2499618530273438,1.2499618530273438,-0.02197265625
1.2499618530273438,1.2499618530273438,0.193328857421875
1.2499618530273438,1.2499618530273438,0.1520538330078125
1.2499618530273438,1.2499618530273438,0.1839447021484375
1.2499618530273438,1.2499618530273438,0.2142333984375
1.2499618530273438,1.2499618530273438,0.2979278564453125
1.2499618530273438,1.2499618530273438,0.27862548828125
1.2499618530273438,1.2499618530273438,0.22125244140625
1.2398910522460938,1.1614608764648438,0.328826904296875
1.2499618530273438,1.2499618530273438,0.3102874755859375
1.2499618530273438,1.2499618530273438,0.2677154541015625
1.2499618530273438,1.2499618530273438,0.357818603515625
1.2499618530273438,1.2499618530273438,0.3928375244140625
1.2499618530273438,1.2499618530273438,0.2629852294921875
1.2499618530273438,1.2499618530273438,0.1816558837890625
1.2499618530273438,1.2499618530273438,0.091094970703125
1.2499618530273438,1.2499618530273438,-0.0830841064453125
1.2499618530273438,1.2499618530273438,-0.1004791259765625
1.2499618530273438,1.2499618530273438,-0.2294921875
1.2499618530273438,1.2499618530273438,-0.2431488037109375
1.2499618530273438,1.2499618530273438,-0.3649139404296875
1.2499618530273438,1.2499618530273438,-0.4267120361328125
1.2499618530273438,1.2499618530273438,-0.410919189453125
1.1551666259765625,1.2377166748046875,-0.442047119140625
1.2499618530273438,1.2499618530273438,-0.3710174560546875
1.2499618530273438,1.2499618530273438,-0.2916717529296875
1.2499618530273438,1.2499618530273438,-0.2735137939453125
1.2499618530273438,1.2499618530273438,-0.2095794677734375
1.2499618530273438,1.2499618530273438,-0.079345703125
1.2499618530273438,1.2499618530273438,-0.0011444091796875
1.2499618530273438,1.2499618530273438,-0.0058746337890625
1.2499618530273438,1.2499618530273438,0.174560546875
1.2499618530273438,1.2499618530273438,0.1932525634765625
1.2499618530273438,1.2499618530273438,0.1660919189453125
1.2499618530273438,1.2499618530273438,0.2288055419921875
1.2499618530273438,1.2499618530273438,0.3493499755859375
1.2499618530273438,1.2499618530273438,0.206451416015625
1.2499618530273438,1.2499618530273438,0.222320556640625
1.2308120727539062,1.1471176147460938,0.2693939208984375
1.2499618530273438,1.2499618530273438,0.29998779296875
1.2499618530273438,1.2499618530273438,0.30242919921875
1.2499618530273438,1.2499618530273438,0.3847503662109375
1.2499618530273438,1.2499618530273438,0.35858154296875
1.2499618530273438,1.2499618530273438,0.15716552734375
1.2499618530273438,1.2499618530273438,0.20233154296875
1.2499618530273438,1.2499618530273438,0.1235198974609375
1.2499618530273438,1.2499618530273438,-0.0563812255859375
1.2499618530273438,1.2499618530273438,-0.180511474609375
1.2499618530273438,1.2499618530273438,-0.2230072021484375
1.2499618530273438,1.2499618530273438,-0.1934814453125
1.2499618530273438,1.2499618530273438,-0.382537841796875
1.2499618530273438,1.2499618530273438,-0.4253387451171875
1.2499618530273438,1.2499618530273438,-0.423126220703125
1.1776351928710938,1.2331771850585938,-0.4620361328125
1.2499618530273438,1.2499618530273438,-0.40435791015625
1.2499618530273438,1.2499618530273438,-0.2887725830078125
1.2499618530273438,1.2499618530273438,-0.305633544921875
1.2499618530273438,1.2499618530273438,-0.2565765380859375
1.2499618530273438,1.2499618530273438,-0.1247406005859375
1.2499618530273438,1.2499618530273438,-0.0391387939453125
1.2499618530273438,1.2499618530273438,-0.032806396484375
1.2499618530273438,1.2499618530273438,0.11505126953125
1.2499618530273438,1.2499618530273438,0.2346038818359375
1.2499618530273438,1.2499618530273438,0.2114105224609375
1.2499618530273438,1.2499618530273438,0.1910400390625
1.2499618530273438,1.2499618530273438,0.2809906005859375
1.2499618530273438,1.2499618530273438,0.308990478515625
1.2499618530273438,1.2499618530273438,0.2603912353515625
1.2145614624023438,1.1507797241210938,0.306549072265625
1.2499618530273438,1.2499618530273438,0.323486328125
1.2499618530273438,1.2499618530273438,0.3177642822265625
1.2499618530273438,1.2499618530273438,0.3505706787109375
1.2499618530273438,1.2499618530273438,0.3879547119140625
1.2499618530273438,1.2499618530273438,0.22247314453125
1.2499618530273438,1.2499618530273438,0.1668548583984375
1.2499618530273438,1.2499618530273438,0.090179443359375
1.2499618530273438,1.2499618530273438,-0.073394775390625
1.2499618530273438,1.2499618530273438,-0.1512908935546875
1.2499618530273438,1.2499618530273438,-0.158233642578125
1.2499618530273438,1.2499618530273438,-0.2518463134765625
1.2499618530273438,1.2499618530273438,-0.389862060546875
1.2499618530273438,1.2499618530273438,-0.5269622802734375
1.2499618530273438,1.2499618530273438,-0.450592041015625
1.1662673950195312,1.2297439575195312,-0.449066162109375
1.2499618530273438,1.2499618530273438,-0.5040740966796875
1.2499618530273438,1.2499618530273438,-0.243072509765625
1.2499618530273438,1.2499618530273438,-0.300140380859375
1.2499618530273438,1.2499618530273438,-0.192718505859375
1.2499618530273438,1.2499618530273438,-0.1275634765625
1.2499618530273438,1.2499618530273438,0.05035400390625
1.2499618530273438,1.2499618530273438,-0.01861572265625
1.2499618530273438,1.2499618530273438,0.1373291015625
1.2499618530273438,1.2499618530273438,0.1525115966796875
1.2499618530273438,1.2499618530273438,0.1932525634765625
1.2499618530273438,1.2499618530273438,0.157470703125
1.2499618530273438,1.2499618530273438,0.30975341796875
1.2499618530273438,1.2499618530273438,0.2954864501953125
1.2499618530273438,1.2499618530273438,0.2435302734375
1.2025070190429688,1.1286163330078125,0.2738189697265625
1.2499618530273438,1.2499618530273438,0.2849578857421875
1.2499618530273438,1.2499618530273438,0.3369140625
1.2499618530273438,1.2499618530273438,0.4036712646484375
1.2499618530273438,1.2499618530273438,0.3614044189453125
1.2499618530273438,1.2499618530273438,0.244293212890625
1.2499618530273438,1.2499618530273438,0.160064697265625
1.2499618530273438,1.2499618530273438,0.1779937744140625
1.2499618530273438,1.2499618530273438,-0.114593505859375
1.2499618530273438,1.2499618530273438,-0.170745849609375
1.2499618530273438,1.2499618530273438,-0.19775390625
1.2499618530273438,1.2499618530273438,-0.229949951171875
1.2499618530273438,1.2499618530273438,-0.3940582275390625
1.2499618530273438,1.2499618530273438,-0.448150634765625
1.2499618530273438,1.2499618530273438,-0.40557861328125
1.1633682250976562,1.2070083618164062,-0.50048828125
1.2499618530273438,1.2499618530273438,-0.3615570068359375
1.2499618530273438,1.2499618530273438,-0.268402099609375
1.2499618530273438,1.2499618530273438,-0.2861785888671875
1.2499618530273438,1.2499618530273438,-0.26641845703125
1.2499618530273438,1.2499618530273438,-0.1324462890625
1.2499618530273438,1.2499618530273438,-0.0090789794921875
1.2499618530273438,1.2499618530273438,-0.0351715087890625
1.2499618530273438,1.2499618530273438,0.2271270751953125
1.2499618530273438,1.2499618530273438,0.1871490478515625
1.2499618530273438,1.2499618530273438,0.203857421875
1.2499618530273438,1.2499618530273438,0.25482177734375
1.2499618530273438,1.2499618530273438,0.24261474609375
1.2499618530273438,1.2499618530273438,0.240478515625
1.2499618530273438,1.2499618530273438,0.217742919921875
1.1690902709960938,1.1379241943359375,0.2492523193359375
1.2499618530273438,1.2499618530273438,0.2972412109375
1.2499618530273438,1.2499618530273438,0.32440185546875
1.2499618530273438,1.2499618530273438,0.439300537109375
1.2499618530273438,1.2499618530273438,0.3917694091796875
1.2499618530273438,1.2499618530273438,0.1141357421875
1.2499618530273438,1.2499618530273438,0.1312255859375
1.2499618530273438,1.2499618530273438,0.083770751953125
1.2499618530273438,1.2499618530273438,-0.038909912109375
1.2499618530273438,1.2499618530273438,-0.1702117919921875
1.2499618530273438,1.2499618530273438,-0.162200927734375
1.2499618530273438,1.2499618530273438,-0.2086639404296875
1.2499618530273438,1.2499618530273438,-0.4642486572265625
1.2499618530273438,1.2499618530273438,-0.438385009765625
1.2499618530273438,1.2499618530273438,-0.3905487060546875
1.154632568359375,1.2073898315429688,-0.4444122314453125
1.2499618530273438,1.2499618530273438,-0.3778839111328125
1.2499618530273438,1.2499618530273438,-0.3045654296875
1.2499618530273438,1.2499618530273438,-0.2838134765625
1.2499618530273438,1.2499618530273438,-0.1096343994140625
1.2499618530273438,1.2499618530273438,-0.04058837890625
1.2499618530273438,1.2499618530273438,-0.0506591796875
1.2499618530273438,1.2499618530273438,-0.0030517578125
1.2499618530273438,1.2499618530273438,0.117340087890625
1.2499618530273438,1.2499618530273438,0.1287841796875
1.2499618530273438,1.2499618530273438,0.1409912109375
1.2499618530273438,1.2499618530273438,0.1421356201171875
1.2499618530273438,1.2499618530273438,0.269927978515625
1.2499618530273438,1.2499618530273438,0.32806396484375
1.2499618530273438,1.2499618530273438,0.2521514892578125
1.181488037109375,1.1149978637695312,0.2809906005859375
1.2499618530273438,1.2499618530273438,0.25604248046875
1.2499618530273438,1.2499618530273438,0.3006744384765625
1.2499618530273438,1.2499618530273438,0.386810302734375
1.2499618530273438,1.2499618530273438,0.4306793212890625
1.2499618530273438,1.2499618530273438,0.3014373779296875
1.2499618530273438,1.2499618530273438,0.1897430419921875
1.2499618530273438,1.2499618530273438,0.0812530517578125
1.2499618530273438,1.2499618530273438,-0.0586700439453125
1.2499618530273438,1.2499618530273438,-0.10833740234375
1.2499618530273438,1.2499618530273438,-0.1983642578125
1.2499618530273438,1.2499618530273438,-0.2718353271484375
1.2499618530273438,1.2499618530273438,-0.4058074951171875
1.2499618530273438,1.2499618530273438,-0.4216766357421875
1.2499618530273438,1.2499618530273438,-0.4080963134765625
1.083831787109375,1.1718368530273438,-0.4537200927734375
1.2499618530273438,1.2499618530273438,-0.3740692138671875
1.2499618530273438,1.2499618530273438,-0.330047607421875
1.2499618530273438,1.2499618530273438,-0.247802734375
1.2499618530273438,1.2499618530273438,-0.164337158203125
1.2499618530273438,1.2499618530273438,-0.111083984375
1.2499618530273438,1.2499618530273438,-0.047454833984375
1.2499618530273438,1.2499618530273438,0.0508880615234375
1.2499618530273438,1.2499618530273438,0.1862335205078125
1.2499618530273438,1.2499618530273438,0.2101898193359375
1.2499618530273438,1.2499618530273438,0.188140869140625
1.2499618530273438,1.2499618530273438,0.2024078369140625
1.2499618530273438,1.2499618530273438,0.24993896484375
1.2499618530273438,1.2499618530273438,0.2487945556640625
1.2499618530273438,1.2499618530273438,0.220794677734375
1.1732101440429688,1.1315536499023438,0.3082275390625
1.2499618530273438,1.2499618530273438,0.334014892578125
1.2499618530273438,1.2499618530273438,0.3183746337890625
1.2499618530273438,1.2499618530273438,0.3887939453125
1.2499618530273438,1.2499618530273438,0.305938720703125
1.2499618530273438,1.2499618530273438,0.2094268798828125
1.2499618530273438,1.2499618530273438,0.1226806640625
1.2499618530273438,1.2499618530273438,0.1674652099609375
1.2499618530273438,1.2499618530273438,-0.059356689453125
1.2499618530273438,1.2499618530273438,-0.117950439453125
1.2499618530273438,1.2499618530273438,-0.2205657958984375
1.2499618530273438,1.2499618530273438,-0.30609130859375
1.2499618530273438,1.2499618530273438,-0.3833770751953125
1.2499618530273438,1.2499618530273438,-0.455474853515625
1.2499618530273438,1.2499618530273438,-0.4431915283203125
1.1034393310546875,1.1552047729492188,-0.44464111328125
1.2499618530273438,1.2499618530273438,-0.3375244140625
1.2499618530273438,1.2499618530273438,-0.2785491943359375
1.2499618530273438,1.2499618530273438,-0.3136444091796875
1.2499618530273438,1.2499618530273438,-0.2295684814453125
1.2499618530273438,1.2499618530273438,-0.1213836669921875
1.2499618530273438,1.2499618530273438,-0.037384033203125
1.2499618530273438,1.2499618530273438,-0.054779052734375
1.2499618530273438,1.2499618530273438,0.151214599609375
1.2499618530273438,1.2499618530273438,0.1996612548828125
1.2499618530273438,1.2499618530273438,0.2194976806640625
1.2499618530273438,1.2499618530273438,0.2022552490234375
1.2499618530273438,1.2499618530273438,0.265960693359375
1.2499618530273438,1.2499618530273438,0.24261474609375
1.2499618530273438,1.2499618530273438,0.210723876953125
1.1622238159179688,1.0935592651367188,0.3076934814453125
1.2499618530273438,1.2499618530273438,0.3195953369140625
1.2499618530273438,1.2499618530273438,0.3052520751953125
1.2499618530273438,1.2499618530273438,0.3997802734375
1.2499618530273438,1.2499618530273438,0.2005767822265625
1.2499618530273438,1.2499618530273438,0.31158447265625
1.2499618530273438,1.2499618530273438,0.1964569091796875
1.2499618530273438,1.2499618530273438,0.1593017578125
1.2499618530273438,1.2499618530273438,-0.0548553466796875
1.2499618530273438,1.2499618530273438,-0.1732635498046875
1.2499618530273438,1.2499618530273438,-0.197906494140625
1.2499618530273438,1.2499618530273438,-0.3037261962890625
1.2499618530273438,1.2499618530273438,-0.401458740234375
1.2499618530273438,1.2499618530273438,-0.49713134765625
1.2499618530273438,1.2499618530273438,-0.39764404296875
1.1013031005859375,1.1349868774414062,-0.4747772216796875
1.2499618530273438,1.2499618530273438,-0.3664398193359375
1.2499618530273438,1.2499618530273438,-0.3162384033203125
1.2499618530273438,1.2499618530273438,-0.278778076171875
1.2499618530273438,1.2499618530273438,-0.2508544921875
1.2499618530273438,1.2499618530273438,-0.095977783203125
1.2499618530273438,1.2499618530273438,-0.0225067138671875
1.2499618530273438,1.2499618530273438,-0.03997802734375
1.2499618530273438,1.2499618530273438,0.16876220703125
1.2499618530273438,1.2499618530273438,0.2442169189453125
1.2499618530273438,1.2499618530273438,0.2099609375
1.2499618530273438,1.2499618530273438,0.205535888671875
1.2499618530273438,1.2499618530273438,0.214691162109375
1.2499618530273438,1.2499618530273438,0.249176025390625
1.2499618530273438,1.2499618530273438,0.2413177490234375
1.163787841796875,1.0961151123046875,0.276641845703125
1.2499618530273438,1.2499618530273438,0.128936767578125
1.2499618530273438,1.2499618530273438,0.281829833984375
1.2499618530273438,1.2499618530273438,0.4123687744140625
1.2499618530273438,1.2499618530273438,0.2562713623046875
1.2499618530273438,1.2499618530273438,0.178680419921875
1.2499618530273438,1.2499618530273438,0.14251708984375
1.2499618530273438,1.2499618530273438,0.094757080078125
1.2499618530273438,1.2499618530273438,-0.118560791015625
1.2499618530273438,1.2499618530273438,-0.1251220703125
1.2499618530273438,1.2499618530273438,-0.18402099609375
1.2499618530273438,1.2499618530273438,-0.3394317626953125
1.2499618530273438,1.2499618530273438,-0.4395294189453125
1.2499618530273438,1.2499618530273438,-0.460205078125
1.2499618530273438,1.2499618530273438,-0.4032135009765625
1.0687637329101562,1.1168289184570312,-0.4608154296875
1.2499618530273438,1.2499618530273438,-0.362548828125
1.2499618530273438,1.2499618530273438,-0.2796173095703125
1.2499618530273438,1.2499618530273438,-0.2671051025390625
1.2499618530273438,1.2499618530273438,-0.2794647216796875
1.2499618530273438,1.2499618530273438,-0.130615234375
1.2499618530273438,1.2499618530273438,-0.0141143798828125
1.2499618530273438,1.2499618530273438,-0.0299835205078125
1.2499618530273438,1.2499618530273438,0.1425933837890625
1.2499618530273438,1.2499618530273438,0.2783966064453125
1.2499618530273438,1.2499618530273438,0.157928466796875
1.2499618530273438,1.2499618530273438,0.180511474609375
1.2499618530273438,1.2499618530273438,0.259552001953125
1.2499618530273438,1.2499618530273438,0.2643585205078125
1.2499618530273438,1.2499618530273438,0.251617431640625
1.129150390625,1.055450439453125,0.356292724609375
1.2499618530273438,1.2499618530273438,0.299072265625
1.2499618530273438,1.2499618530273438,0.3284454345703125
1.2499618530273438,1.2499618530273438,0.420074462890625
1.2499618530273438,1.2499618530273438,0.38848876953125
1.2499618530273438,1.2499618530273438,0.1676177978515625
1.2499618530273438,1.2499618530273438,0.1782989501953125
1.2499618530273438,1.2499618530273438,0.1495361328125
1.2499618530273438,1.2499618530273438,-0.026092529296875
1.2499618530273438,1.2499618530273438,-0.2127838134765625
1.2499618530273438,1.2499618530273438,-0.1345062255859375
1.2499618530273438,1.2499618530273438,-0.3618621826171875
1.2499618530273438,1.2499618530273438,-0.3969573974609375
1.2499618530273438,1.2499618530273438,-0.450439453125
1.2499618530273438,1.2499618530273438,-0.4141998291015625
1.0634613037109375,1.1148452758789062,-0.4792022705078125
1.2499618530273438,1.2499618530273438,-0.3540802001953125
1.2499618530273438,1.2499618530273438,-0.204620361328125
1.2499618530273438,1.2499618530273438,-0.277099609375
1.2499618530273438,1.2499618530273438,-0.175323486328125
1.2499618530273438,1.2499618530273438,-0.0994873046875
1.2499618530273438,1.2499618530273438,-0.054168701171875
1.2499618530273438,1.2499618530273438,-0.012359619140625
1.2499618530273438,1.2499618530273438,0.139007568359375
1.2499618530273438,1.2499618530273438,0.2459716796875
1.2499618530273438,1.2499618530273438,0.2516937255859375
1.2499618530273438,1.2499618530273438,0.2585601806640625
1.2499618530273438,1.2499618530273438,0.2576446533203125
1.2499618530273438,1.2499618530273438,0.3050994873046875
1.2499618530273438,1.2499618530273438,0.248260498046875
1.1434173583984375,1.0503005981445312,0.2242279052734375
1.2499618530273438,1.2499618530273438,0.32318115234375
1.2499618530273438,1.2499618530273438,0.31341552734375
1.2499618530273438,1.2499618530273438,0.4019927978515625
1.2499618530273438,1.2499618530273438,0.3676605224609375
1.2499618530273438,1.2499618530273438,0.2142333984375
1.2499618530273438,1.2499618530273438,0.20355224609375
1.2499618530273438,1.2499618530273438,0.10406494140625
1.2499618530273438,1.2499618530273438,-0.0795745849609375
1.2499618530273438,1.2499618530273438,-0.2294158935546875
1.2499618530273438,1.2499618530273438,-0.147552490234375
1.2499618530273438,1.2499618530273438,-0.26519775390625
1.2499618530273438,1.2499618530273438,-0.4172515869140625
1.2499618530273438,1.2499618530273438,-0.4659271240234375
1.2499618530273438,1.2499618530273438,-0.37109375
1.0272216796875,1.1035919189453125,-0.4703521728515625
1.2499618530273438,1.2499618530273438,-0.331268310546875
1.2499618530273438,1.2499618530273438,-0.3461456298828125
1.2499618530273438,1.2499618530273438,-0.184326171875
1.2499618530273438,1.2499618530273438,-0.28411865234375
1.2499618530273438,1.2499618530273438,-0.098114013671875
1.2499618530273438,1.2499618530273438,-0.0591278076171875
1.2499618530273438,1.2499618530273438,0.0072479248046875
1.2499618530273438,1.2499618530273438,0.214691162109375
1.2499618530273438,1.2499618530273438,0.155181884765625
1.2499618530273438,1.2499618530273438,0.19195556640625
1.2499618530273438,1.2499618530273438,0.2606964111328125
1.2499618530273438,1.2499618530273438,0.2579498291015625
1.2499618530273438,1.2499618530273438,0.2542877197265625
1.2499618530273438,1.2499618530273438,0.23223876953125
1.0833358764648438,1.0367202758789062,0.3253173828125
1.2499618530273438,1.2499618530273438,0.3180694580078125
1.2499618530273438,1.2499618530273438,0.300140380859375
1.2499618530273438,1.2499618530273438,0.4335784912109375
1.2499618530273438,1.2499618530273438,0.30303955078125
1.2499618530273438,1.2499618530273438,0.2251434326171875
1.2499618530273438,1.2499618530273438,0.1689910888671875
1.2499618530273438,1.2499618530273438,0.2187347412109375
1.2499618530273438,1.2499618530273438,-0.1129913330078125
1.2499618530273438,1.2499618530273438,-0.1097869873046875
1.2499618530273438,1.2499618530273438,-0.14312744140625
1.2499618530273438,1.2499618530273438,-0.33050537109375
1.2499618530273438,1.2499618530273438,-0.454559326171875
1.2499618530273438,1.2499618530273438,-0.4306793212890625
1.2499618530273438,1.2499618530273438,-0.396881103515625
1.027679443359375,1.0759353637695312,-0.4705810546875
1.2499618530273438,1.2499618530273438,-0.3481292724609375
1.2499618530273438,1.2499618530273438,-0.2349090576171875
1.2499618530273438,1.2499618530273438,-0.3853607177734375
1.2499618530273438,1.2499618530273438,-0.219573974609375
1.2499618530273438,1.2499618530273438,-0.043182373046875
1.2499618530273438,1.2499618530273438,-0.0142669677734375
1.2499618530273438,1.2499618530273438,0.05401611328125
1.2499618530273438,1.2499618530273438,0.2274322509765625
1.2499618530273438,1.2499618530273438,0.233001708984375
1.2499618530273438,1.2499618530273438,0.1871490478515625
1.2499618530273438,1.2499618530273438,0.1969146728515625
1.2499618530273438,1.2499618530273438,0.269012451171875
1.2499618530273438,1.2499618530273438,0.220947265625
1.2499618530273438,1.2499618530273438,0.2216339111328125
1.0880661010742188,1.00616455078125,0.269622802734375
1.2499618530273438,1.2499618530273438,0.2716827392578125
1.2499618530273438,1.2499618530273438,0.2685546875
1.2499618530273438,1.2499618530273438,0.35919189453125
1.2499618530273438,1.2499618530273438,0.2983856201171875
1.2499618530273438,1.2499618530273438,0.194549560546875
1.2499618530273438,1.2499618530273438,0.1421356201171875
1.2499618530273438,1.2499618530273438,0.06103515625
1.2499618530273438,1.2499618530273438,-0.1219940185546875
1.2499618530273438,1.2499618530273438,-0.2097320556640625
1.2499618530273438,1.2499618530273438,-0.1837921142578125
1.2499618530273438,1.2499618530273438,-0.2892303466796875
1.2499618530273438,1.2499618530273438,-0.4021453857421875
1.2499618530273438,1.2499618530273438,-0.4509735107421875
1.2499618530273438,1.2499618530273438,-0.4415130615234375
1.0144805908203125,1.0707473754882812,-0.4357147216796875
1.2499618530273438,1.2499618530273438,-0.268096923828125
1.2499618530273438,1.2499618530273438,-0.2877044677734375
1.2499618530273438,1.2499618530273438,-0.25634765625
1.2499618530273438,1.2499618530273438,-0.1827239990234375
1.2499618530273438,1.2499618530273438,0.0373077392578125
1.2499618530273438,1.2499618530273438,-0.0289154052734375
1.2499618530273438,1.2499618530273438,-0.0261688232421875
1.2499618530273438,1.2499618530273438,0.2136993408203125
1.2499618530273438,1.2499618530273438,0.1552581787109375
1.2499618530273438,1.2499618530273438,0.1688385009765625
1.2499618530273438,1.2499618530273438,0.217132568359375
1.2499618530273438,1.2499618530273438,0.24871826171875
1.2499618530273438,1.2499618530273438,0.294647216796875
1.2499618530273438,1.2499618530273438,0.2590179443359375
1.0451507568359375,0.9846115112304688,0.34820556640625
1.2499618530273438,1.2499618530273438,0.3687286376953125
1.2499618530273438,1.2499618530273438,0.3430938720703125
1.2499618530273438,1.2499618530273438,0.43121337890625
1.2499618530273438,1.2499618530273438,0.28106689453125
1.2499618530273438,1.2499618530273438,0.21331787109375
1.2499618530273438,1.2499618530273438,0.21820068359375
1.2499618530273438,1.2499618530273438,0.1914215087890625
1.2499618530273438,1.2499618530273438,-0.1346588134765625
1.2499618530273438,1.2499618530273438,-0.132904052734375
1.2499618530273438,1.2499618530273438,-0.16937255859375
1.2499618530273438,1.2499618530273438,-0.270538330078125
1.2499618530273438,1.2499618530273438,-0.4579925537109375
1.2499618530273438,1.2499618530273438,-0.493927001953125
1.2499618530273438,1.2499618530273438,-0.4082489013671875
1.0104751586914062,1.0711288452148438,-0.426025390625
1.2499618530273438,1.2499618530273438,-0.2687835693359375
1.2499618530273438,1.2499618530273438,-0.27374267578125
1.2499618530273438,1.2499618530273438,-0.301513671875
1.2499618530273438,1.2499618530273438,-0.230712890625
1.2499618530273438,1.2499618530273438,-0.03997802734375
1.2499618530273438,1.2499618530273438,-0.049285888671875
1.2499618530273438,1.2499618530273438,-0.03814697265625
1.2499618530273438,1.2499618530273438,0.2048492431640625
1.2499618530273438,1.2499618530273438,0.2681732177734375
1.2499618530273438,1.2499618530273438,0.1256561279296875
1.2499618530273438,1.2499618530273438,0.2213287353515625
1.2499618530273438,1.2499618530273438,0.2869415283203125
1.2499618530273438,1.2499618530273438,0.3029632568359375
1.2499618530273438,1.2499618530273438,0.2353668212890625
1.0231781005859375,0.9747695922851562,0.30487060546875
1.2499618530273438,1.2499618530273438,0.2785491943359375
1.2499618530273438,1.2499618530273438,0.3531646728515625
1.2499618530273438,1.2499618530273438,0.41717529296875
1.2499618530273438,1.2499618530273438,0.4288482666015625
1.2499618530273438,1.2499618530273438,0.207672119140625
1.2499618530273438,1.2499618530273438,0.18646240234375
1.2499618530273438,1.2499618530273438,0.1404571533203125
1.2499618530273438,1.2499618530273438,-0.0743865966796875
1.2499618530273438,1.2499618530273438,-0.1668548583984375
1.2499618530273438,1.2499618530273438,-0.2338409423828125
1.2499618530273438,1.2499618530273438,-0.3038787841796875
1.2499618530273438,1.2499618530273438,-0.427093505859375
1.2499618530273438,1.2499618530273438,-0.4894256591796875
1.2499618530273438,1.2499618530273438,-0.3467559814453125
1.0009384155273438,1.0424423217773438,-0.4538726806640625
1.2499618530273438,1.2499618530273438,-0.352783203125
1.2499618530273438,1.2499618530273438,-0.2553558349609375
1.2499618530273438,1.2499618530273438,-0.3000640869140625
1.2499618530273438,1.2499618530273438,-0.2840423583984375
1.2499618530273438,1.2499618530273438,-0.0603485107421875
1.2499618530273438,1.2499618530273438,-0.084991455078125
1.2499618530273438,1.2499618530273438,-0.01068115234375
1.2499618530273438,1.2499618530273438,0.2104949951171875
1.2499618530273438,1.2499618530273438,0.171051025390625
1.2499618530273438,1.2499618530273438,0.2397918701171875
1.2499618530273438,1.2499618530273438,0.2535247802734375
1.2499618530273438,1.2499618530273438,0.30853271484375
1.2499618530273438,1.2499618530273438,0.312347412109375
1.2499618530273438,1.2499618530273438,0.24017333984375
0.9936904907226562,0.9573745727539062,0.29510498046875
1.2499618530273438,1.2499618530273438,0.3095245361328125
1.2499618530273438,1.2499618530273438,0.3326416015625
1.2499618530273438,1.2499618530273438,0.432281494140625
1.2499618530273438,1.2499618530273438,0.3391265869140625
1.2499618530273438,1.2499618530273438,0.205535888671875
1.2499618530273438,1.2499618530273438,0.1720428466796875
1.2499618530273438,1.2499618530273438,0.1187896728515625
1.2499618530273438,1.2499618530273438,-0.09063720703125
1.2499618530273438,1.2499618530273438,-0.1418304443359375
1.2499618530273438,1.2499618530273438,-0.2184295654296875
1.2499618530273438,1.2499618530273438,-0.2744293212890625
1.2499618530273438,1.2499618530273438,-0.489044189453125
1.2499618530273438,1.2499618530273438,-0.4717254638671875
1.2499618530273438,1.2499618530273438,-0.408782958984375
0.99212646484375,1.0281753540039062,-0.44921875
1.2499618530273438,1.2499618530273438,-0.3876495361328125
1.2499618530273438,1.2499618530273438,-0.26611328125
1.2499618530273438,1.2499618530273438,-0.3018951416015625
1.2499618530273438,1.2499618530273438,-0.182342529296875
1.2499618530273438,1.2499618530273438,-0.08636474609375
1.2499618530273438,1.2499618530273438,-0.0164794921875
1.2499618530273438,1.2499618530273438,-0.000457763671875
1.2499618530273438,1.2499618530273438,0.138702392578125
1.2499618530273438,1.2499618530273438,0.2454376220703125
1.2499618530273438,1.2499618530273438,0.1406097412109375
1.2499618530273438,1.2499618530273438,0.2735137939453125
1.2499618530273438,1.2499618530273438,0.2516937255859375
1.2499618530273438,1.2499618530273438,0.25360107421875
1.2499618530273438,1.2499618530273438,0.2666473388671875
0.9983444213867188,0.9738540649414062,0.3363037109375
1.2499618530273438,1.2499618530273438,0.3253936767578125
1.2499618530273438,1.2499618530273438,0.3441619873046875
1.2499618530273438,1.2499618530273438,0.454559326171875
1.2499618530273438,1.2499618530273438,0.3411865234375
1.2499618530273438,1.2499618530273438,0.196533203125
1.2499618530273438,1.2499618530273438,0.189208984375
1.2499618530273438,1.2499618530273438,0.197296142578125
1.2499618530273438,1.2499618530273438,-0.137939453125
1.2499618530273438,1.2499618530273438,-0.25665283203125
1.2499618530273438,1.2499618530273438,-0.198974609375
1.2499618530273438,1.2499618530273438,-0.31341552734375
1.2499618530273438,1.2499618530273438,-0.4418182373046875
1.2499618530273438,1.2499618530273438,-0.4607391357421875
1.2499618530273438,1.2499618530273438,-0.40802001953125
0.9611129760742188,1.0179901123046875,-0.43487548828125
1.2499618530273438,1.2499618530273438,-0.3221893310546875
1.2499618530273438,1.2499618530273438,-0.2631378173828125
1.2499618530273438,1.2499618530273438,-0.3125762939453125
1.2499618530273438,1.2499618530273438,-0.1995849609375
1.2499618530273438,1.2499618530273438,-0.061492919921875
1.2499618530273438,1.2499618530273438,-0.045318603515625
1.2499618530273438,1.2499618530273438,0.023193359375
1.2499618530273438,1.2499618530273438,0.1665496826171875
1.2499618530273438,1.2499618530273438,0.1607513427734375
1.2499618530273438,1.2499618530273438,0.1601409912109375
1.2499618530273438,1.2499618530273438,0.157623291015625
1.2499618530273438,1.2499618530273438,0.3238677978515625
1.2499618530273438,1.2499618530273438,0.31280517578125
1.2499618530273438,1.2499618530273438,0.2541351318359375
0.9947967529296875,0.9372711181640625,0.363616943359375
1.2499618530273438,1.2499618530273438,0.275726318359375
1.2499618530273438,1.2499618530273438,0.3180694580078125
1.2499618530273438,1.2499618530273438,0.4053497314453125
1.2499618530273438,1.2499618530273438,0.3372955322265625
1.2499618530273438,1.2499618530273438,0.2051544189453125
1.2499618530273438,1.2499618530273438,0.1450347900390625
1.2499618530273438,1.2499618530273438,0.1718902587890625
1.2499618530273438,1.2499618530273438,-0.1210784912109375
1.2499618530273438,1.2499618530273438,-0.119476318359375
1.2499618530273438,1.2499618530273438,-0.1534271240234375
1.2499618530273438,1.2499618530273438,-0.237884521484375
1.2499618530273438,1.2499618530273438,-0.42877197265625
1.2499618530273438,1.2499618530273438,-0.4976654052734375
1.2499618530273438,1.2499618530273438,-0.395660400390625
0.9122848510742188,0.9856033325195312,-0.4534912109375
1.2499618530273438,1.2499618530273438,-0.3186798095703125
1.2499618530273438,1.2499618530273438,-0.31646728515625
1.2499618530273438,1.2499618530273438,-0.316314697265625
1.2499618530273438,1.2499618530273438,-0.2376556396484375
1.2499618530273438,1.2499618530273438,-0.129241943359375
1.2499618530273438,1.2499618530273438,-0.075836181640625
1.2499618530273438,1.2499618530273438,0.0016021728515625
1.2499618530273438,1.2499618530273438,0.1732635498046875
1.2499618530273438,1.2499618530273438,0.1385498046875
1.2499618530273438,1.2499618530273438,0.1615142822265625
1.2499618530273438,1.2499618530273438,0.2838134765625
1.2499618530273438,1.2499618530273438,0.2492523193359375
1.2499618530273438,1.2499618530273438,0.2285003662109375
1.2499618530273438,1.2499618530273438,0.252838134765625
0.9727859497070312,0.9477615356445312,0.338897705078125
1.2499618530273438,1.2499618530273438,0.3757476806640625
1.2499618530273438,1.2499618530273438,0.3260040283203125
1.2499618530273438,1.2499618530273438,0.3905487060546875
1.2499618530273438,1.2499618530273438,0.3603363037109375
1.2499618530273438,1.2499618530273438,0.1636505126953125
1.2499618530273438,1.2499618530273438,0.1984405517578125
1.2499618530273438,1.2499618530273438,0.022735595703125
1.2499618530273438,1.2499618530273438,-0.17181396484375
1.2499618530273438,1.2499618530273438,-0.202789306640625
1.2499618530273438,1.2499618530273438,-0.18768310546875
1.2499618530273438,1.2499618530273438,-0.3850555419921875
1.2499618530273438,1.2499618530273438,-0.4708099365234375
1.2499618530273438,1.2499618530273438,-0.45654296875
1.2499618530273438,1.2499618530273438,-0.4402923583984375
0.9228515625,0.9836578369140625,-0.428924560546875
1.2499618530273438,1.2499618530273438,-0.3165435791015625
1.2499618530273438,1.2499618530273438,-0.3436279296875
1.2499618530273438,1.2499618530273438,-0.37109375
1.2499618530273438,1.2499618530273438,-0.0699615478515625
1.2499618530273438,1.2499618530273438,-0.1525115966796875
1.2499618530273438,1.2499618530273438,-0.04547119140625
1.2499618530273438,1.2499618530273438,-0.0908660888671875
1.2499618530273438,1.2499618530273438,0.1738739013671875
1.2499618530273438,1.2499618530273438,0.2142333984375
1.2499618530273438,1.2499618530273438,0.197296142578125
1.2499618530273438,1.2499618530273438,0.2214813232421875
1.2499618530273438,1.2499618530273438,0.3221893310546875
1.2499618530273438,1.2499618530273438,0.2820587158203125
1.2499618530273438,1.2499618530273438,0.22857666015625
1.0016632080078125,0.9328079223632812,0.3264617919921875
1.2499618530273438,1.2499618530273438,0.257568359375
1.2499618530273438,1.2499618530273438,0.38238525390625
1.2499618530273438,1.2499618530273438,0.4488372802734375
1.2499618530273438,1.2499618530273438,0.31341552734375
1.2499618530273438,1.2499618530273438,0.1947784423828125
1.2499618530273438,1.2499618530273438,0.2124786376953125
1.2499618530273438,1.2499618530273438,0.115509033203125
1.2499618530273438,1.2499618530273438,-0.0567626953125
1.2499618530273438,1.2499618530273438,-0.16510009765625
1.2499618530273438,1.2499618530273438,-0.125274658203125
1.2499618530273438,1.2499618530273438,-0.356597900390625
1.2499618530273438,1.2499618530273438,-0.44036865234375
1.2499618530273438,1.2499618530273438,-0.4607391357421875
1.2499618530273438,1.2499618530273438,-0.404815673828125
0.8599472045898438,0.9613418579101562,-0.450897216796875
1.2499618530273438,1.2499618530273438,-0.337066650390625
1.2499618530273438,1.2499618530273438,-0.243988037109375
1.2499618530273438,1.2499618530273438,-0.286102294921875
1.2499618530273438,1.2499618530273438,-0.2276611328125
1.2499618530273438,1.2499618530273438,0.0569915771484375
1.2499618530273438,1.2499618530273438,0.0455474853515625
1.2499618530273438,1.2499618530273438,-0.0061798095703125
1.2499618530273438,1.2499618530273438,0.2443695068359375
1.2499618530273438,1.2499618530273438,0.187835693359375
1.2499618530273438,1.2499618530273438,0.189971923828125
1.2499618530273438,1.2499618530273438,0.2303314208984375
1.2499618530273438,1.2499618530273438,0.2208709716796875
1.2499618530273438,1.2499618530273438,0.2614593505859375
1.2499618530273438,1.2499618530273438,0.2190399169921875
0.9889602661132812,0.9369659423828125,0.2942657470703125
1.2499618530273438,1.2499618530273438,0.2880859375
1.2499618530273438,1.2499618530273438,0.288238525390625
1.2499618530273438,1.2499618530273438,0.375823974609375
1.2499618530273438,1.2499618530273438,0.27740478515625
1.2499618530273438,1.2499618530273438,0.211181640625
1.2499618530273438,1.2499618530273438,0.1422119140625
1.2499618530273438,1.2499618530273438,0.1259613037109375
1.2499618530273438,1.2499618530273438,-0.1050567626953125
1.2499618530273438,1.2499618530273438,-0.1895904541015625
1.2499618530273438,1.2499618530273438,-0.0942230224609375
1.2499618530273438,1.2499618530273438,-0.3478240966796875
1.2499618530273438,1.2499618530273438,-0.4045867919921875
1.2499618530273438,1.2499618530273438,-0.4360198974609375
1.2499618530273438,1.2499618530273438,-0.395965576171875
0.9146881103515625,0.9624481201171875,-0.4537200927734375
1.2499618530273438,1.2499618530273438,-0.32440185546875
1.2499618530273438,1.2499618530273438,-0.1910400390625
1.2499618530273438,1.2499618530273438,-0.3253936767578125
1.2499618530273438,1.2499618530273438,-0.2333831787109375
1.2499618530273438,1.2499618530273438,-0.0949859619140625
1.2499618530273438,1.2499618530273438,0.00091552734375
1.2499618530273438,1.2499618530273438,0.02044677734375
1.2499618530273438,1.2499618530273438,0.15350341796875
1.2499618530273438,1.2499618530273438,0.19195556640625
1.2499618530273438,1.2499618530273438,0.1932525634765625
1.2499618530273438,1.2499618530273438,0.179443359375
1.2499618530273438,1.2499618530273438,0.3582000732421875
1.2499618530273438,1.2499618530273438,0.2329254150390625
1.2499618530273438,1.2499618530273438,0.2437591552734375
0.9678268432617188,0.92742919921875,0.3142547607421875
1.2499618530273438,1.2499618530273438,0.286407470703125
1.2499618530273438,1.2499618530273438,0.369110107421875
1.2499618530273438,1.2499618530273438,0.400390625
1.2499618530273438,1.2499618530273438,0.3209686279296875
1.2499618530273438,1.2499618530273438,0.1207733154296875
1.2499618530273438,1.2499618530273438,0.2295684814453125
1.2499618530273438,1.2499618530273438,0.0342559814453125
1.2499618530273438,1.2499618530273438,-0.110015869140625
1.2499618530273438,1.2499618530273438,-0.2032470703125
1.2499618530273438,1.2499618530273438,-0.1540374755859375
1.2499618530273438,1.2499618530273438,-0.37750244140625
1.2499618530273438,1.2499618530273438,-0.4216766357421875
1.2499618530273438,1.2499618530273438,-0.4544830322265625
1.2499618530273438,1.2499618530273438,-0.43121337890625
0.9224700927734375,0.9821701049804688,-0.4534912109375
1.2499618530273438,1.2499618530273438,-0.31219482421875
1.2499618530273438,1.2499618530273438,-0.2455902099609375
1.2499618530273438,1.2499618530273438,-0.286407470703125
1.2499618530273438,1.2499618530273438,-0.1500701904296875
1.2499618530273438,1.2499618530273438,-0.0238800048828125
1.2499618530273438,1.2499618530273438,-0.1184844970703125
1.2499618530273438,1.2499618530273438,0.0337982177734375
1.2499618530273438,1.2499618530273438,0.1680755615234375
1.2499618530273438,1.2499618530273438,0.2367401123046875
1.2499618530273438,1.2499618530273438,0.1116943359375
1.2499618530273438,1.2499618530273438,0.1865386962890625
1.2499618530273438,1.2499618530273438,0.28076171875
1.2499618530273438,1.2499618530273438,0.2875518798828125
1.2499618530273438,1.2499618530273438,0.250396728515625
0.9428787231445312,0.88531494140625,0.3156280517578125
1.2499618530273438,1.2499618530273438,0.399627685546875
1.2499618530273438,1.2499618530273438,0.3106689453125
1.2499618530273438,1.2499618530273438,0.4041290283203125
1.2499618530273438,1.2499618530273438,0.3401947021484375
1.2499618530273438,1.2499618530273438,0.1796722412109375
1.2499618530273438,1.2499618530273438,0.1902008056640625
1.2499618530273438,1.2499618530273438,0.0714874267578125
1.2499618530273438,1.2499618530273438,-0.0811004638671875
1.2499618530273438,1.2499618530273438,-0.144500732421875
1.2499618530273438,1.2499618530273438,-0.081024169921875
1.2499618530273438,1.2499618530273438,-0.3564453125
1.2499618530273438,1.2499618530273438,-0.3789520263671875
1.2499618530273438,1.2499618530273438,-0.42633056640625
1.2499618530273438,1.2499618530273438,-0.399627685546875
0.9101486206054688,0.968017578125,-0.4747772216796875
1.2499618530273438,1.2499618530273438,-0.3104400634765625
1.2499618530273438,1.2499618530273438,-0.2606964111328125
1.2499618530273438,1.2499618530273438,-0.3203582763671875
1.2499618530273438,1.2499618530273438,-0.1386260986328125
1.2499618530273438,1.2499618530273438,0.0218963623046875
1.2499618530273438,1.2499618530273438,-0.074615478515625
1.2499618530273438,1.2499618530273438,0.0244903564453125
1.2499618530273438,1.2499618530273438,0.200042724609375
1.2499618530273438,1.2499618530273438,0.34454345703125
1.2499618530273438,1.2499618530273438,0.1507568359375
1.2499618530273438,1.2499618530273438,0.2197265625
1.2499618530273438,1.2499618530273438,0.31951904296875
1.2499618530273438,1.2499618530273438,0.259552001953125
1.2499618530273438,1.2499618530273438,0.247650146484375
0.92803955078125,0.8887863159179688,0.3171539306640625
1.2499618530273438,1.2499618530273438,0.255126953125
1.2499618530273438,1.2499618530273438,0.3326416015625
1.2499618530273438,1.2499618530273438,0.4669189453125
1.2499618530273438,1.2499618530273438,0.382232666015625
1.2499618530273438,1.2499618530273438,0.257415771484375
1.2499618530273438,1.2499618530273438,0.16082763671875
1.2499618530273438,1.2499618530273438,0.0608062744140625
1.2499618530273438,1.2499618530273438,-0.0997161865234375
1.2499618530273438,1.2499618530273438,-0.157012939453125
1.2499618530273438,1.2499618530273438,-0.0914764404296875
1.2499618530273438,1.2499618530273438,-0.3173065185546875
1.2499618530273438,1.2499618530273438,-0.4547119140625
1.2499618530273438,1.2499618530273438,-0.4213714599609375
1.2499618530273438,1.2499618530273438,-0.3972625732421875
0.9184646606445312,0.9507369995117188,-0.4413604736328125
1.2499618530273438,1.2499618530273438,-0.2730560302734375
1.2499618530273438,1.2499618530273438,-0.2880096435546875
1.2499618530273438,1.2499618530273438,-0.251312255859375
1.2499618530273438,1.2499618530273438,-0.2120208740234375
1.2499618530273438,1.2499618530273438,-0.0849151611328125
1.2499618530273438,1.2499618530273438,-0.043792724609375
1.2499618530273438,1.2499618530273438,-0.0042724609375
1.2499618530273438,1.2499618530273438,0.263519287109375
1.2499618530273438,1.2499618530273438,0.1663970947265625
1.2499618530273438,1.2499618530273438,0.2323150634765625
1.2499618530273438,1.2499618530273438,0.2193450927734375
1.2499618530273438,1.2499618530273438,0.228424072265625
1.2499618530273438,1.2499618530273438,0.29998779296875
1.2499618530273438,1.2499618530273438,0.2577972412109375
0.9261322021484375,0.8716201782226562,0.338134765625
1.2499618530273438,1.2499618530273438,0.2539825439453125
1.2499618530273438,1.2499618530273438,0.318450927734375
1.2499618530273438,1.2499618530273438,0.341644287109375
1.2499618530273438,1.2499618530273438,0.311431884765625
1.2499618530273438,1.2499618530273438,0.2498626708984375
1.2499618530273438,1.2499618530273438,0.1331329345703125
1.2499618530273438,1.2499618530273438,0.1540374755859375
1.2499618530273438,1.2499618530273438,-0.178070068359375
1.2499618530273438,1.2499618530273438,-0.16998291015625
1.2499618530273438,1.2499618530273438,-0.189971923828125
1.2499618530273438,1.2499618530273438,-0.3417205810546875
1.2499618530273438,1.2499618530273438,-0.43670654296875
1.2499618530273438,1.2499618530273438,-0.4373931884765625
1.2499618530273438,1.2499618530273438,-0.4273223876953125
0.910491943359375,0.9552001953125,-0.49041748046875
1.2499618530273438,1.2499618530273438,-0.3173828125
1.2499618530273438,1.2499618530273438,-0.2748870849609375
1.2499618530273438,1.2499618530273438,-0.3173828125
1.2499618530273438,1.2499618530273438,-0.2155303955078125
1.2499618530273438,1.2499618530273438,-0.093231201171875
1.2499618530273438,1.2499618530273438,-0.022125244140625
1.2499618530273438,1.2499618530273438,0.0104522705078125
1.2499618530273438,1.2499618530273438,0.193939208984375
1.2499618530273438,1.2499618530273438,0.2274322509765625
1.2499618530273438,1.2499618530273438,0.09735107421875
1.2499618530273438,1.2499618530273438,0.2948760986328125
1.2499618530273438,1.2499618530273438,0.314483642578125
1.2499618530273438,1.2499618530273438,0.2970123291015625
1.2499618530273438,1.2499618530273438,0.3392791748046875
0.8950042724609375,0.87646484375,0.3403472900390625
1.2499618530273438,1.2499618530273438,0.280303955078125
1.2499618530273438,1.2499618530273438,0.2759552001953125
1.2499618530273438,1.2499618530273438,0.390625
1.2499618530273438,1.2499618530273438,0.2548980712890625
1.2499618530273438,1.2499618530273438,0.225830078125
1.2499618530273438,1.2499618530273438,0.1692962646484375
1.2499618530273438,1.2499618530273438,0.0904083251953125
1.2499618530273438,1.2499618530273438,-0.1500701904296875
1.2499618530273438,1.2499618530273438,-0.160369873046875
1.2499618530273438,1.2499618530273438,-0.1416778564453125
1.2499618530273438,1.2499618530273438,-0.29083251953125
1.2499618530273438,1.2499618530273438,-0.388336181640625
1.2499618530273438,1.2499618530273438,-0.4415130615234375
1.2499618530273438,1.2499618530273438,-0.452423095703125
0.9112930297851562,0.9725570678710938,-0.49163818359375
1.2499618530273438,1.2499618530273438,-0.323944091796875
1.2499618530273438,1.2499618530273438,-0.2602386474609375
1.2499618530273438,1.2499618530273438,-0.355072021484375
1.2499618530273438,1.2499618530273438,-0.12237548828125
1.2499618530273438,1.2499618530273438,-0.045166015625
1.2499618530273438,1.2499618530273438,-0.0030517578125
1.2499618530273438,1.2499618530273438,0.019683837890625
1.2499618530273438,1.2499618530273438,0.2603912353515625
1.2499618530273438,1.2499618530273438,0.1801300048828125
1.2499618530273438,1.2499618530273438,0.1996612548828125
1.2499618530273438,1.2499618530273438,0.2983856201171875
1.2499618530273438,1.2499618530273438,0.2252960205078125
1.2499618530273438,1.2499618530273438,0.2231597900390625
1.2499618530273438,1.2499618530273438,0.2245330810546875
0.9067153930664062,0.8768081665039062,0.2793121337890625
1.2499618530273438,1.2499618530273438,0.291748046875
1.2499618530273438,1.2499618530273438,0.3295135498046875
1.2499618530273438,1.2499618530273438,0.5040740966796875
1.2499618530273438,1.2499618530273438,0.388641357421875
1.2499618530273438,1.2499618530273438,0.147705078125
1.2499618530273438,1.2499618530273438,0.25299072265625
1.2499618530273438,1.2499618530273438,0.1215362548828125
1.2499618530273438,1.2499618530273438,-0.1424407958984375
1.2499618530273438,1.2499618530273438,-0.1464080810546875
1.2499618530273438,1.2499618530273438,-0.16876220703125
1.2499618530273438,1.2499618530273438,-0.339508056640625
1.2499618530273438,1.2499618530273438,-0.467987060546875
1.2499618530273438,1.2499618530273438,-0.5069732666015625
1.2499618530273438,1.2499618530273438,-0.4850006103515625
0.9268569946289062,0.9624099731445312,-0.4280853271484375
1.2499618530273438,1.2499618530273438,-0.323486328125
1.2499618530273438,1.2499618530273438,-0.2899932861328125
1.2499618530273438,1.2499618530273438,-0.33905029296875
1.2499618530273438,1.2499618530273438,-0.1998138427734375
1.2499618530273438,1.2499618530273438,-0.0093841552734375
1.2499618530273438,1.2499618530273438,-0.0859832763671875
1.2499618530273438,1.2499618530273438,0.0579833984375
1.2499618530273438,1.2499618530273438,0.2256011962890625
1.2499618530273438,1.2499618530273438,0.173492431640625
1.2499618530273438,1.2499618530273438,0.1224517822265625
1.2499618530273438,1.2499618530273438,0.2527618408203125
1.2499618530273438,1.2499618530273438,0.2680206298828125
1.2499618530273438,1.2499618530273438,0.2758026123046875
1.2499618530273438,1.2499618530273438,0.245819091796875
0.9047317504882812,0.8746719360351562,0.2874755859375
1.2499618530273438,1.2499618530273438,0.22430419921875
1.2499618530273438,1.2499618530273438,0.3337860107421875
1.2499618530273438,1.2499618530273438,0.3504180908203125
1.2499618530273438,1.2499618530273438,0.306243896484375
1.2499618530273438,1.2499618530273438,0.26580810546875
1.2499618530273438,1.2499618530273438,0.2098846435546875
1.2499618530273438,1.2499618530273438,0.0989532470703125
1.2499618530273438,1.2499618530273438,-0.1308441162109375
1.2499618530273438,1.2499618530273438,-0.0310516357421875
1.2499618530273438,1.2499618530273438,-0.15106201171875
1.2499618530273438,1.2499618530273438,-0.3554534912109375
1.2499618530273438,1.2499618530273438,-0.390472412109375
1.2499618530273438,1.2499618530273438,-0.46844482421875
1.2499618530273438,1.2499618530273438,-0.43731689453125
0.8710479736328125,0.9583282470703125,-0.451812744140625
1.2499618530273438,1.2499618530273438,-0.2765655517578125
1.2499618530273438,1.2499618530273438,-0.2706146240234375
1.2499618530273438,1.2499618530273438,-0.3220367431640625
1.2499618530273438,1.2499618530273438,-0.18096923828125
1.2499618530273438,1.2499618530273438,-0.077972412109375
1.2499618530273438,1.2499618530273438,-0.0370025634765625
1.2499618530273438,1.2499618530273438,0.028533935546875
1.2499618530273438,1.2499618530273438,0.1662445068359375
1.2499618530273438,1.2499618530273438,0.2301025390625
1.2499618530273438,1.2499618530273438,0.077056884765625
1.2499618530273438,1.2499618530273438,0.3324127197265625
1.2499618530273438,1.2499618530273438,0.3076934814453125
1.2499618530273438,1.2499618530273438,0.2902984619140625
1.2499618530273438,1.2499618530273438,0.27069091796875
0.924530029296875,0.8704757690429688,0.33294677734375
1.2499618530273438,1.2499618530273438,0.124053955078125
1.2499618530273438,1.2499618530273438,0.3285980224609375
1.2499618530273438,1.2499618530273438,0.4062652587890625
1.2499618530273438,1.2499618530273438,0.2988433837890625
1.2499618530273438,1.2499618530273438,0.1397705078125
1.2499618530273438,1.2499618530273438,0.235748291015625
1.2499618530273438,1.2499618530273438,0.1639556884765625
1.2499618530273438,1.2499618530273438,-0.1610565185546875
1.2499618530273438,1.2499618530273438,-0.18035888671875
1.2499618530273438,1.2499618530273438,-0.1454925537109375
1.2499618530273438,1.2499618530273438,-0.3192138671875
1.2499618530273438,1.2499618530273438,-0.3459930419921875
1.2499618530273438,1.2499618530273438,-0.477294921875
1.2499618530273438,1.2499618530273438,-0.4303741455078125
0.8762359619140625,0.9326171875,-0.4215240478515625
1.2499618530273438,1.2499618530273438,-0.28533935546875
1.2499618530273438,1.2499618530273438,-0.304718017578125
1.2499618530273438,1.2499618530273438,-0.2675628662109375
1.2499618530273438,1.2499618530273438,-0.07781982421875
1.2499618530273438,1.2499618530273438,-0.0872802734375
1.2499618530273438,1.2499618530273438,-0.040435791015625
1.2499618530273438,1.2499618530273438,-0.0788116455078125
1.2499618530273438,1.2499618530273438,0.163726806640625
1.2499618530273438,1.2499618530273438,0.184783935546875
1.2499618530273438,1.2499618530273438,0.1140594482421875
1.2499618530273438,1.2499618530273438,0.2848052978515625
1.2499618530273438,1.2499618530273438,0.21087646484375
1.2499618530273438,1.2499618530273438,0.273284912109375
1.2499618530273438,1.2499618530273438,0.2318572998046875
0.9152984619140625,0.86334228515625,0.2923583984375
1.2499618530273438,1.2499618530273438,0.240631103515625
1.2499618530273438,1.2499618530273438,0.3226470947265625
1.2499618530273438,1.2499618530273438,0.4212188720703125
1.2499618530273438,1.2499618530273438,0.34637451171875
1.2499618530273438,1.2499618530273438,0.165252685546875
1.2499618530273438,1.2499618530273438,0.2280426025390625
1.2499618530273438,1.2499618530273438,0.0859832763671875
1.2499618530273438,1.2499618530273438,-0.1573944091796875
1.2499618530273438,1.2499618530273438,-0.2056121826171875
1.2499618530273438,1.2499618530273438,-0.178680419921875
1.2499618530273438,1.2499618530273438,-0.34454345703125
1.2499618530273438,1.2499618530273438,-0.358734130859375
1.2499618530273438,1.2499618530273438,-0.446929931640625
1.2499618530273438,1.2499618530273438,-0.4436492919921875
0.8752822875976562,0.9302902221679688,-0.4315185546875
1.2499618530273438,1.2499618530273438,-0.3026580810546875
1.2499618530273438,1.2499618530273438,-0.2742767333984375
1.2499618530273438,1.2499618530273438,-0.353851318359375
1.2499618530273438,1.2499618530273438,-0.0933837890625
1.2499618530273438,1.2499618530273438,-0.04058837890625
1.2499618530273438,1.2499618530273438,-0.073394775390625
1.2499618530273438,1.2499618530273438,-0.051422119140625
1.2499618530273438,1.2499618530273438,0.2333831787109375
1.2499618530273438,1.2499618530273438,0.1934814453125
1.2499618530273438,1.2499618530273438,0.1091766357421875
1.2499618530273438,1.2499618530273438,0.2240753173828125
1.2499618530273438,1.2499618530273438,0.3028106689453125
1.2499618530273438,1.2499618530273438,0.32379150390625
1.2499618530273438,1.2499618530273438,0.2724456787109375
0.923614501953125,0.8885574340820312,0.3134918212890625
1.2499618530273438,1.2499618530273438,0.21759033203125
1.2499618530273438,1.2499618530273438,0.289154052734375
1.2499618530273438,1.2499618530273438,0.4428863525390625
1.2499618530273438,1.2499618530273438,0.311737060546875
1.2499618530273438,1.2499618530273438,0.2462005615234375
1.2499618530273438,1.2499618530273438,0.1361083984375
1.2499618530273438,1.2499618530273438,0.1348114013671875
1.2499618530273438,1.2499618530273438,-0.1113128662109375
1.2499618530273438,1.2499618530273438,-0.188140869140625
1.2499618530273438,1.2499618530273438,-0.09765625
1.2499618530273438,1.2499618530273438,-0.3939056396484375
1.2499618530273438,1.2499618530273438,-0.4248809814453125
1.2499618530273438,1.2499618530273438,-0.4027557373046875
1.2499618530273438,1.2499618530273438,-0.4305267333984375
0.8500289916992188,0.913543701171875,-0.4041290283203125
1.2499618530273438,1.2499618530273438,-0.2701568603515625
1.2499618530273438,1.2499618530273438,-0.276641845703125
1.2499618530273438,1.2499618530273438,-0.339202880859375
1.2499618530273438,1.2499618530273438,-0.2629852294921875
1.2499618530273438,1.2499618530273438,-0.1441192626953125
1.2499618530273438,1.2499618530273438,-0.0852203369140625
1.2499618530273438,1.2499618530273438,0.014801025390625
1.2499618530273438,1.2499618530273438,0.279541015625
1.2499618530273438,1.2499618530273438,0.1194000244140625
1.2499618530273438,1.2499618530273438,0.1634979248046875
1.2499618530273438,1.2499618530273438,0.2460479736328125
1.2499618530273438,1.2499618530273438,0.248260498046875
1.2499618530273438,1.2499618530273438,0.2832794189453125
1.2499618530273438,1.2499618530273438,0.23468017578125
0.9431076049804688,0.87005615234375,0.33294677734375
1.2499618530273438,1.2499618530273438,0.2999114990234375
1.2499618530273438,1.2499618530273438,0.320892333984375
1.2499618530273438,1.2499618530273438,0.48431396484375
1.2499618530273438,1.2499618530273438,0.2658843994140625
1.2499618530273438,1.2499618530273438,0.195159912109375
1.2499618530273438,1.2499618530273438,0.194549560546875
1.2499618530273438,1.2499618530273438,0.0980377197265625
1.2499618530273438,1.2499618530273438,-0.164794921875
1.2499618530273438,1.2499618530273438,-0.1178741455078125
1.2499618530273438,1.2499618530273438,-0.20751953125
1.2499618530273438,1.2499618530273438,-0.38116455078125
1.2499618530273438,1.2499618530273438,-0.386199951171875
1.2499618530273438,1.2499618530273438,-0.3922271728515625
1.2499618530273438,1.2499618530273438,-0.49041748046875
0.8652496337890625,0.8983993530273438,-0.4129791259765625
1.2499618530273438,1.2499618530273438,-0.2806854248046875
1.2499618530273438,1.2499618530273438,-0.23956298828125
1.2499618530273438,1.2499618530273438,-0.3276824951171875
1.2499618530273438,1.2499618530273438,-0.23040771484375
1.2499618530273438,1.2499618530273438,-0.0850677490234375
1.2499618530273438,1.2499618530273438,-0.05859375
1.2499618530273438,1.2499618530273438,0.0548553466796875
1.2499618530273438,1.2499618530273438,0.281524658203125
1.2499618530273438,1.2499618530273438,0.219268798828125
1.2499618530273438,1.2499618530273438,0.17242431640625
1.2499618530273438,1.2499618530273438,0.2164459228515625
1.2499618530273438,1.2499618530273438,0.2307891845703125
1.2499618530273438,1.2499618530273438,0.263824462890625
1.2499618530273438,1.2499618530273438,0.24871826171875
0.9077072143554688,0.8823394775390625,0.33843994140625
1.2499618530273438,1.2499618530273438,0.2667236328125
1.2499618530273438,1.2499618530273438,0.338592529296875
1.2499618530273438,1.2499618530273438,0.417633056640625
1.2499618530273438,1.2499618530273438,0.27587890625
1.2499618530273438,1.2499618530273438,0.280914306640625
1.2499618530273438,1.2499618530273438,0.17059326171875
1.2499618530273438,1.2499618530273438,0.121612548828125
1.2499618530273438,1.2499618530273438,-0.205230712890625
1.2499618530273438,1.2499618530273438,-0.14984130859375
1.2499618530273438,1.2499618530273438,-0.1636505126953125
1.2499618530273438,1.2499618530273438,-0.39306640625
1.2499618530273438,1.2499618530273438,-0.3821563720703125
1.2499618530273438,1.2499618530273438,-0.4451751708984375
1.2499618530273438,1.2499618530273438,-0.429840087890625
0.8698654174804688,0.9406280517578125,-0.43731689453125
1.2499618530273438,1.2499618530273438,-0.30181884765625
1.2499618530273438,1.2499618530273438,-0.300750732421875
1.2499618530273438,1.2499618530273438,-0.3171539306640625
1.2499618530273438,1.2499618530273438,-0.151214599609375
1.2499618530273438,1.2499618530273438,-0.0714111328125
1.2499618530273438,1.2499618530273438,-0.1300048828125
1.2499618530273438,1.2499618530273438,0.054473876953125
1.2499618530273438,1.2499618530273438,0.15045166015625
1.2499618530273438,1.2499618530273438,0.178985595703125
1.2499618530273438,1.2499618530273438,0.1134490966796875
1.2499618530273438,1.2499618530273438,0.3298187255859375
1.2499618530273438,1.2499618530273438,0.2501678466796875
1.2499618530273438,1.2499618530273438,0.2618408203125
1.2499618530273438,1.2499618530273438,0.2880859375
0.9251022338867188,0.8933639526367188,0.3511810302734375
1.2499618530273438,1.2499618530273438,0.2832794189453125
1.2499618530273438,1.2499618530273438,0.306549072265625
1.2499618530273438,1.2499618530273438,0.4576873779296875
1.2499618530273438,1.2499618530273438,0.2632904052734375
1.2499618530273438,1.2499618530273438,0.1856231689453125
1.2499618530273438,1.2499618530273438,0.22705078125
1.2499618530273438,1.2499618530273438,0.071563720703125
1.2499618530273438,1.2499618530273438,-0.1714324951171875
1.2499618530273438,1.2499618530273438,-0.121307373046875
1.2499618530273438,1.2499618530273438,-0.202484130859375
1.2499618530273438,1.2499618530273438,-0.391387939453125
1.2499618530273438,1.2499618530273438,-0.36529541015625
1.2499618530273438,1.2499618530273438,-0.46295166015625
1.2499618530273438,1.2499618530273438,-0.4697418212890625
0.8985519409179688,0.95550537109375,-0.4644775390625
1.2499618530273438,1.2499618530273438,-0.35003662109375
1.2499618530273438,1.2499618530273438,-0.322113037109375
1.2499618530273438,1.2499618530273438,-0.267181396484375
1.2499618530273438,1.2499618530273438,-0.1876068115234375
1.2499618530273438,1.2499618530273438,-0.1300811767578125
1.2499618530273438,1.2499618530273438,-0.046234130859375
1.2499618530273438,1.2499618530273438,0.0194549560546875
1.2499618530273438,1.2499618530273438,0.213775634765625
1.2499618530273438,1.2499618530273438,0.286865234375
1.2499618530273438,1.2499618530273438,0.17303466796875
1.2499618530273438,1.2499618530273438,0.26702880859375
1.2499618530273438,1.2499618530273438,0.2185821533203125
1.2499618530273438,1.2499618530273438,0.3038787841796875
1.2499618530273438,1.2499618530273438,0.276031494140625
0.9183502197265625,0.8774185180664062,0.3147125244140625
1.2499618530273438,1.2499618530273438,0.252685546875
1.2499618530273438,1.2499618530273438,0.3092193603515625
1.2499618530273438,1.2499618530273438,0.4489898681640625
1.2499618530273438,1.2499618530273438,0.3256988525390625
1.2499618530273438,1.2499618530273438,0.144500732421875
1.2499618530273438,1.2499618530273438,0.177001953125
1.2499618530273438,1.2499618530273438,0.0759124755859375
1.2499618530273438,1.2499618530273438,-0.17181396484375
1.2499618530273438,1.2499618530273438,-0.0991058349609375
1.2499618530273438,1.2499618530273438,-0.2025604248046875
1.2499618530273438,1.2499618530273438,-0.3125
1.2499618530273438,1.2499618530273438,-0.355377197265625
1.2499618530273438,1.2499618530273438,-0.4856109619140625
1.2499618530273438,1.2499618530273438,-0.470733642578125
0.8948898315429688,0.9620285034179688,-0.407867431640625
1.2499618530273438,1.2499618530273438,-0.3112030029296875
1.2499618530273438,1.2499618530273438,-0.2669525146484375
1.2499618530273438,1.2499618530273438,-0.3031158447265625
1.2499618530273438,1.2499618530273438,-0.18035888671875
1.2499618530273438,1.2499618530273438,-0.0650787353515625
1.2499618530273438,1.2499618530273438,-0.0502777099609375
1.2499618530273438,1.2499618530273438,0.0225830078125
1.2499618530273438,1.2499618530273438,0.181427001953125
1.2499618530273438,1.2499618530273438,0.1869964599609375
1.2499618530273438,1.2499618530273438,0.113372802734375
1.2499618530273438,1.2499618530273438,0.255279541015625
1.2499618530273438,1.2499618530273438,0.295867919921875
1.2499618530273438,1.2499618530273438,0.2356719970703125
1.2499618530273438,1.2499618530273438,0.26336669921875
0.8929824829101562,0.849609375,0.28289794921875
1.2499618530273438,1.2499618530273438,0.25238037109375
1.2499618530273438,1.2499618530273438,0.310516357421875
1.2499618530273438,1.2499618530273438,0.4038238525390625
1.2499618530273438,1.2499618530273438,0.2506256103515625
1.2499618530273438,1.2499618530273438,0.19622802734375
1.2499618530273438,1.2499618530273438,0.1622772216796875
1.2499618530273438,1.2499618530273438,0.0748443603515625
1.2499618530273438,1.2499618530273438,-0.139923095703125
1.2499618530273438,1.2499618530273438,-0.1678466796875
1.2499618530273438,1.2499618530273438,-0.1976776123046875
1.2499618530273438,1.2499618530273438,-0.4216766357421875
1.2499618530273438,1.2499618530273438,-0.39794921875
1.2499618530273438,1.2499618530273438,-0.4412841796875
1.2499618530273438,1.2499618530273438,-0.4660797119140625
0.8800506591796875,0.9640884399414062,-0.4351043701171875
1.2499618530273438,1.2499618530273438,-0.3338623046875
1.2499618530273438,1.2499618530273438,-0.267181396484375
1.2499618530273438,1.2499618530273438,-0.3792572021484375
1.2499618530273438,1.2499618530273438,-0.1918792724609375
1.2499618530273438,1.2499618530273438,-0.103759765625
1.2499618530273438,1.2499618530273438,-0.0432586669921875
1.2499618530273438,1.2499618530273438,0.0022125244140625
1.2499618530273438,1.2499618530273438,0.2738189697265625
1.2499618530273438,1.2499618530273438,0.1663970947265625
1.2499618530273438,1.2499618530273438,0.2398681640625
1.2499618530273438,1.2499618530273438,0.2793121337890625
1.2499618530273438,1.2499618530273438,0.2634429931640625
1.2499618530273438,1.2499618530273438,0.211029052734375
1.2499618530273438,1.2499618530273438,0.2390289306640625
0.879058837890625,0.8681869506835938,0.330352783203125
1.2499618530273438,1.2499618530273438,0.2834320068359375
1.2499618530273438,1.2499618530273438,0.3277587890625
1.2499618530273438,1.2499618530273438,0.431365966796875
1.2499618530273438,1.2499618530273438,0.354461669921875
1.2499618530273438,1.2499618530273438,0.233612060546875
1.2499618530273438,1.2499618530273438,0.162811279296875
1.2499618530273438,1.2499618530273438,0.1151275634765625
1.2499618530273438,1.2499618530273438,-0.1177978515625
1.2499618530273438,1.2499618530273438,-0.1165771484375
1.2499618530273438,1.2499618530273438,-0.1882171630859375
1.2499618530273438,1.2499618530273438,-0.316619873046875
1.2499618530273438,1.2499618530273438,-0.408477783203125
1.2499618530273438,1.2499618530273438,-0.441436767578125
1.2499618530273438,1.2499618530273438,-0.4764556884765625
0.9307479858398438,0.9755706787109375,-0.4514312744140625
1.2499618530273438,1.2499618530273438,-0.274658203125
1.2499618530273438,1.2499618530273438,-0.227508544921875
1.2499618530273438,1.2499618530273438,-0.333099365234375
1.2499618530273438,1.2499618530273438,-0.15777587890625
1.2499618530273438,1.2499618530273438,-0.0601959228515625
1.2499618530273438,1.2499618530273438,0.002593994140625
1.2499618530273438,1.2499618530273438,0.0608062744140625
1.2499618530273438,1.2499618530273438,0.176544189453125
1.2499618530273438,1.2499618530273438,0.21148681640625
1.2499618530273438,1.2499618530273438,0.211944580078125
1.2499618530273438,1.2499618530273438,0.301055908203125
1.2499618530273438,1.2499618530273438,0.270843505859375
1.2499618530273438,1.2499618530273438,0.270843505859375
1.2499618530273438,1.2499618530273438,0.2991485595703125
0.8693695068359375,0.8477783203125,0.2950286865234375
1.2499618530273438,1.2499618530273438,0.2596282958984375
1.2499618530273438,1.2499618530273438,0.3336334228515625
1.2499618530273438,1.2499618530273438,0.3813934326171875
1.2499618530273438,1.2499618530273438,0.3106689453125
1.2499618530273438,1.2499618530273438,0.1671600341796875
1.2499618530273438,1.2499618530273438,0.1470947265625
1.2499618530273438,1.2499618530273438,0.0659942626953125
1.2499618530273438,1.2499618530273438,-0.18951416015625
1.2499618530273438,1.2499618530273438,-0.188751220703125
1.2499618530273438,1.2499618530273438,-0.14556884765625
1.2499618530273438,1.2499618530273438,-0.3199005126953125
1.2499618530273438,1.2499618530273438,-0.43182373046875
1.2499618530273438,1.2499618530273438,-0.452728271484375
1.2499618530273438,1.2499618530273438,-0.4524993896484375
0.9392166137695312,0.9747695922851562,-0.388031005859375
1.2499618530273438,1.2499618530273438,-0.2629852294921875
1.2499618530273438,1.2499618530273438,-0.273895263671875
1.2499618530273438,1.2499618530273438,-0.37811279296875
1.2499618530273438,1.2499618530273438,-0.19989013671875
1.2499618530273438,1.2499618530273438,0.0241851806640625
1.2499618530273438,1.2499618530273438,-0.009765625
1.2499618530273438,1.2499618530273438,0.027313232421875
1.2499618530273438,1.2499618530273438,0.26885986328125
1.2499618530273438,1.2499618530273438,0.2158355712890625
1.2499618530273438,1.2499618530273438,0.078887939453125
1.2499618530273438,1.2499618530273438,0.2678680419921875
1.2499618530273438,1.2499618530273438,0.24810791015625
1.2499618530273438,1.2499618530273438,0.296783447265625
1.2499618530273438,1.2499618530273438,0.278472900390625
0.9328842163085938,0.8800888061523438,0.32501220703125
1.2499618530273438,1.2499618530273438,0.2471923828125
1.2499618530273438,1.2499618530273438,0.318450927734375
1.2499618530273438,1.2499618530273438,0.4302215576171875
1.2499618530273438,1.2499618530273438,0.32318115234375
1.2499618530273438,1.2499618530273438,0.2262115478515625
1.2499618530273438,1.2499618530273438,0.19378662109375
1.2499618530273438,1.2499618530273438,0.0724029541015625
1.2499618530273438,1.2499618530273438,-0.094757080078125
1.2499618530273438,1.2499618530273438,-0.2194976806640625
1.2499618530273438,1.2499618530273438,-0.136260986328125
1.2499618530273438,1.2499618530273438,-0.3833770751953125
1.2499618530273438,1.2499618530273438,-0.391082763671875
1.2499618530273438,1.2499618530273438,-0.44769287109375
1.2499618530273438,1.2499618530273438,-0.4380035400390625
0.9572219848632812,1.0110855102539062,-0.410919189453125
1.2499618530273438,1.2499618530273438,-0.3253936767578125
1.2499618530273438,1.2499618530273438,-0.2663421630859375
1.2499618530273438,1.2499618530273438,-0.268707275390625
1.2499618530273438,1.2499618530273438,-0.1596832275390625
1.2499618530273438,1.2499618530273438,-0.0223541259765625
1.2499618530273438,1.2499618530273438,-0.117645263671875
1.2499618530273438,1.2499618530273438,0.0675201416015625
1.2499618530273438,1.2499618530273438,0.2304840087890625
1.2499618530273438,1.2499618530273438,0.1522064208984375
1.2499618530273438,1.2499618530273438,0.1480865478515625
1.2499618530273438,1.2499618530273438,0.2433013916015625
1.2499618530273438,1.2499618530273438,0.2141571044921875
1.2499618530273438,1.2499618530273438,0.2677154541015625
1.2499618530273438,1.2499618530273438,0.4001617431640625
0.9344863891601562,0.888519287109375,0.3617095947265625
1.2499618530273438,1.2499618530273438,0.287017822265625
1.2499618530273438,1.2499618530273438,0.3340911865234375
1.2499618530273438,1.2499618530273438,0.4363250732421875
1.2499618530273438,1.2499618530273438,0.2129364013671875
1.2499618530273438,1.2499618530273438,0.1517486572265625
1.2499618530273438,1.2499618530273438,0.2150726318359375
1.2499618530273438,1.2499618530273438,0.08026123046875
1.2499618530273438,1.2499618530273438,-0.1336669921875
1.2499618530273438,1.2499618530273438,-0.2072906494140625
1.2499618530273438,1.2499618530273438,-0.1744842529296875
1.2499618530273438,1.2499618530273438,-0.4149627685546875
1.2499618530273438,1.2499618530273438,-0.402679443359375
1.2499618530273438,1.2499618530273438,-0.40130615234375
1.2499618530273438,1.2499618530273438,-0.462646484375
0.9417343139648438,0.996246337890625,-0.40191650390625
1.2499618530273438,1.2499618530273438,-0.239715576171875
1.2499618530273438,1.2499618530273438,-0.2660369873046875
1.2499618530273438,1.2499618530273438,-0.3170013427734375
1.2499618530273438,1.2499618530273438,-0.1427459716796875
1.2499618530273438,1.2499618530273438,-0.0432586669921875
1.2499618530273438,1.2499618530273438,0.020599365234375
1.2499618530273438,1.2499618530273438,-0.0031280517578125
1.2499618530273438,1.2499618530273438,0.2866363525390625
1.2499618530273438,1.2499618530273438,0.2045440673828125
1.2499618530273438,1.2499618530273438,0.2172088623046875
1.2499618530273438,1.2499618530273438,0.2582550048828125
1.2499618530273438,1.2499618530273438,0.273590087890625
1.2499618530273438,1.2499618530273438,0.255279541015625
1.2499618530273438,1.2499618530273438,0.2410125732421875
0.9639358520507812,0.910491943359375,0.333404541015625
1.2499618530273438,1.2499618530273438,0.2652740478515625
1.2499618530273438,1.2499618530273438,0.332489013671875
1.2499618530273438,1.2499618530273438,0.4923248291015625
1.2499618530273438,1.2499618530273438,0.1526641845703125
1.2499618530273438,1.2499618530273438,0.2138519287109375
1.2499618530273438,1.2499618530273438,0.1483154296875
1.2499618530273438,1.2499618530273438,0.064697265625
1.2499618530273438,1.2499618530273438,-0.207061767578125
1.2499618530273438,1.2499618530273438,-0.1840972900390625
1.2499618530273438,1.2499618530273438,-0.125579833984375
1.2499618530273438,1.2499618530273438,-0.3784942626953125
1.2499618530273438,1.2499618530273438,-0.3946685791015625
1.2499618530273438,1.2499618530273438,-0.4801177978515625
1.2499618530273438,1.2499618530273438,-0.4445648193359375
0.9371185302734375,0.98297119140625,-0.489501953125
1.2499618530273438,1.2499618530273438,-0.31463623046875
1.2499618530273438,1.2499618530273438,-0.266571044921875
1.2499618530273438,1.2499618530273438,-0.3023529052734375
1.2499618530273438,1.2499618530273438,-0.14892578125
1.2499618530273438,1.2499618530273438,-0.0414276123046875
1.2499618530273438,1.2499618530273438,-0.10711669921875
1.2499618530273438,1.2499618530273438,0.0896453857421875
1.2499618530273438,1.2499618530273438,0.2312469482421875
1.2499618530273438,1.2499618530273438,0.1818084716796875
1.2499618530273438,1.2499618530273438,0.0919342041015625
1.2499618530273438,1.2499618530273438,0.248565673828125
1.2499618530273438,1.2499618530273438,0.275726318359375
1.2499618530273438,1.2499618530273438,0.262298583984375
1.2499618530273438,1.2499618530273438,0.2768707275390625
0.9650802612304688,0.9354400634765625,0.329132080078125
1.2499618530273438,1.2499618530273438,0.2985382080078125
1.2499618530273438,1.2499618530273438,0.3746795654296875
