Voltage.AUX_RLicht,Voltage.AUX_LLicht,Voltage.AUX_SchalterPlexus
1.2499618530273438,1.2499618530273438,-0.4177093505859375
0.9992599487304688,1.0596084594726562,-0.3740692138671875
1.2499618530273438,1.2499618530273438,-0.29052734375
1.2499618530273438,1.2499618530273438,-0.279388427734375
1.2499618530273438,1.2499618530273438,-0.2355194091796875
1.2499618530273438,1.2499618530273438,-0.0815582275390625
1.2499618530273438,1.2499618530273438,0.00274658203125
1.2499618530273438,1.2499618530273438,-0.0423431396484375
1.2499618530273438,1.2499618530273438,0.044097900390625
1.2499618530273438,1.2499618530273438,0.29083251953125
1.2499618530273438,1.2499618530273438,0.3163909912109375
1.2499618530273438,1.2499618530273438,0.176239013671875
1.2499618530273438,1.2499618530273438,0.28472900390625
1.2499618530273438,1.2499618530273438,0.2486419677734375
1.2499618530273438,1.2499618530273438,0.210113525390625
1.2499618530273438,1.2499618530273438,0.279693603515625
0.9766387939453125,0.9499359130859375,0.3369903564453125
1.2499618530273438,1.2499618530273438,0.2341461181640625
1.2499618530273438,1.2499618530273438,0.32379150390625
1.2499618530273438,1.2499618530273438,0.379791259765625
1.2499618530273438,1.2499618530273438,0.1978302001953125
1.2499618530273438,1.2499618530273438,0.2495574951171875
1.2499618530273438,1.2499618530273438,0.205535888671875
1.2499618530273438,1.2499618530273438,-0.0209808349609375
1.2499618530273438,1.2499618530273438,-0.1793670654296875
1.2499618530273438,1.2499618530273438,-0.1385498046875
1.2499618530273438,1.2499618530273438,-0.1888275146484375
1.2499618530273438,1.2499618530273438,-0.3533172607421875
1.2499618530273438,1.2499618530273438,-0.356597900390625
1.2499618530273438,1.2499618530273438,-0.3951263427734375
1.2499618530273438,1.2499618530273438,-0.4601287841796875
0.9614181518554688,1.0643386840820312,-0.3914642333984375
1.2499618530273438,1.2499618530273438,-0.27099609375
1.2499618530273438,1.2499618530273438,-0.227508544921875
1.2499618530273438,1.2499618530273438,-0.2388763427734375
1.2499618530273438,1.2499618530273438,-0.123748779296875
1.2499618530273438,1.2499618530273438,-0.0775909423828125
1.2499618530273438,1.2499618530273438,-0.01495361328125
1.2499618530273438,1.2499618530273438,0.084991455078125
1.2499618530273438,1.2499618530273438,0.1860809326171875
1.2499618530273438,1.2499618530273438,0.20843505859375
1.2499618530273438,1.2499618530273438,0.1519012451171875
1.2499618530273438,1.2499618530273438,0.234375
1.2499618530273438,1.2499618530273438,0.2530670166015625
1.2499618530273438,1.2499618530273438,0.24688720703125
1.2499618530273438,1.2499618530273438,0.2414703369140625
1.0042190551757812,0.9648513793945312,0.326385498046875
1.2499618530273438,1.2499618530273438,0.2634429931640625
1.2499618530273438,1.2499618530273438,0.3106689453125
1.2499618530273438,1.2499618530273438,0.3716278076171875
1.2499618530273438,1.2499618530273438,0.21636962890625
1.2499618530273438,1.2499618530273438,0.171051025390625
1.2499618530273438,1.2499618530273438,0.204925537109375
1.2499618530273438,1.2499618530273438,0.0402069091796875
1.2499618530273438,1.2499618530273438,-0.1636505126953125
1.2499618530273438,1.2499618530273438,-0.087738037109375
1.2499618530273438,1.2499618530273438,-0.2184295654296875
1.2499618530273438,1.2499618530273438,-0.435638427734375
1.2499618530273438,1.2499618530273438,-0.411224365234375
1.2499618530273438,1.2499618530273438,-0.5011749267578125
1.2499618530273438,1.2499618530273438,-0.45684814453125
0.9838485717773438,1.03485107421875,-0.4152679443359375
1.2499618530273438,1.2499618530273438,-0.2304840087890625
1.2499618530273438,1.2499618530273438,-0.292816162109375
1.2499618530273438,1.2499618530273438,-0.263671875
1.2499618530273438,1.2499618530273438,-0.1728057861328125
1.2499618530273438,1.2499618530273438,-0.0411224365234375
1.2499618530273438,1.2499618530273438,-0.0106048583984375
1.2499618530273438,1.2499618530273438,0.1058197021484375
1.2499618530273438,1.2499618530273438,0.152435302734375
1.2499618530273438,1.2499618530273438,0.225982666015625
1.2499618530273438,1.2499618530273438,0.1241302490234375
1.2499618530273438,1.2499618530273438,0.2828216552734375
1.2499618530273438,1.2499618530273438,0.2016448974609375
1.2499618530273438,1.2499618530273438,0.268096923828125
1.2499618530273438,1.2499618530273438,0.2776336669921875
1.0460662841796875,0.987701416015625,0.3455352783203125
1.2499618530273438,1.2499618530273438,0.25390625
1.2499618530273438,1.2499618530273438,0.3319549560546875
1.2499618530273438,1.2499618530273438,0.44647216796875
1.2499618530273438,1.2499618530273438,0.2513885498046875
1.2499618530273438,1.2499618530273438,0.219879150390625
1.2499618530273438,1.2499618530273438,0.12359619140625
1.2499618530273438,1.2499618530273438,-0.0392913818359375
1.2499618530273438,1.2499618530273438,-0.1177215576171875
1.2499618530273438,1.2499618530273438,-0.15228271484375
1.2499618530273438,1.2499618530273438,-0.27313232421875
1.2499618530273438,1.2499618530273438,-0.44097900390625
1.2499618530273438,1.2499618530273438,-0.4522705078125
1.2499618530273438,1.2499618530273438,-0.4624176025390625
1.2499618530273438,1.2499618530273438,-0.45623779296875
0.9677886962890625,1.0445022583007812,-0.41900634765625
1.2499618530273438,1.2499618530273438,-0.3089141845703125
1.2499618530273438,1.2499618530273438,-0.2315521240234375
1.2499618530273438,1.2499618530273438,-0.2986907958984375
1.2499618530273438,1.2499618530273438,-0.136260986328125
1.2499618530273438,1.2499618530273438,0.0376129150390625
1.2499618530273438,1.2499618530273438,-0.0405120849609375
1.2499618530273438,1.2499618530273438,0.0508880615234375
1.2499618530273438,1.2499618530273438,0.2127838134765625
1.2499618530273438,1.2499618530273438,0.223541259765625
1.2499618530273438,1.2499618530273438,0.1929473876953125
1.2499618530273438,1.2499618530273438,0.262298583984375
1.2499618530273438,1.2499618530273438,0.238037109375
1.2499618530273438,1.2499618530273438,0.1958465576171875
1.2499618530273438,1.2499618530273438,0.312652587890625
1.0474777221679688,1.0068893432617188,0.3569793701171875
1.2499618530273438,1.2499618530273438,0.2942657470703125
1.2499618530273438,1.2499618530273438,0.3971099853515625
1.2499618530273438,1.2499618530273438,0.443115234375
1.2499618530273438,1.2499618530273438,0.18463134765625
1.2499618530273438,1.2499618530273438,0.11962890625
1.2499618530273438,1.2499618530273438,0.112457275390625
1.2499618530273438,1.2499618530273438,0.0374603271484375
1.2499618530273438,1.2499618530273438,-0.19134521484375
1.2499618530273438,1.2499618530273438,-0.17059326171875
1.2499618530273438,1.2499618530273438,-0.1670074462890625
1.2499618530273438,1.2499618530273438,-0.4494476318359375
1.2499618530273438,1.2499618530273438,-0.4227447509765625
1.2499618530273438,1.2499618530273438,-0.402069091796875
1.2499618530273438,1.2499618530273438,-0.4718780517578125
0.9935760498046875,1.0772323608398438,-0.4128265380859375
1.2499618530273438,1.2499618530273438,-0.2510833740234375
1.2499618530273438,1.2499618530273438,-0.268096923828125
1.2499618530273438,1.2499618530273438,-0.2797698974609375
1.2499618530273438,1.2499618530273438,-0.0444793701171875
1.2499618530273438,1.2499618530273438,-0.038604736328125
1.2499618530273438,1.2499618530273438,-0.067596435546875
1.2499618530273438,1.2499618530273438,0.052490234375
1.2499618530273438,1.2499618530273438,0.2239227294921875
1.2499618530273438,1.2499618530273438,0.2542877197265625
1.2499618530273438,1.2499618530273438,0.114593505859375
1.2499618530273438,1.2499618530273438,0.2631378173828125
1.2499618530273438,1.2499618530273438,0.231170654296875
1.2499618530273438,1.2499618530273438,0.233306884765625
1.2499618530273438,1.2499618530273438,0.2765655517578125
1.0506057739257812,1.0344314575195312,0.305938720703125
1.2499618530273438,1.2499618530273438,0.2838134765625
1.2499618530273438,1.2499618530273438,0.348968505859375
1.2499618530273438,1.2499618530273438,0.4167938232421875
1.2499618530273438,1.2499618530273438,0.26763916015625
1.2499618530273438,1.2499618530273438,0.1413726806640625
1.2499618530273438,1.2499618530273438,0.1522064208984375
1.2499618530273438,1.2499618530273438,0.0507354736328125
1.2499618530273438,1.2499618530273438,-0.2643585205078125
1.2499618530273438,1.2499618530273438,-0.2426910400390625
1.2499618530273438,1.2499618530273438,-0.156402587890625
1.2499618530273438,1.2499618530273438,-0.380096435546875
1.2499618530273438,1.2499618530273438,-0.4378509521484375
1.2499618530273438,1.2499618530273438,-0.4462432861328125
1.2499618530273438,1.2499618530273438,-0.4557037353515625
1.0420608520507812,1.106719970703125,-0.4317474365234375
1.2499618530273438,1.2499618530273438,-0.339202880859375
1.2499618530273438,1.2499618530273438,-0.2465057373046875
1.2499618530273438,1.2499618530273438,-0.239410400390625
1.2499618530273438,1.2499618530273438,-0.104827880859375
1.2499618530273438,1.2499618530273438,-0.0301361083984375
1.2499618530273438,1.2499618530273438,-0.04730224609375
1.2499618530273438,1.2499618530273438,0.073394775390625
1.2499618530273438,1.2499618530273438,0.223846435546875
1.2499618530273438,1.2499618530273438,0.21759033203125
1.2499618530273438,1.2499618530273438,0.1593017578125
1.2499618530273438,1.2499618530273438,0.289306640625
1.2499618530273438,1.2499618530273438,0.21514892578125
1.2499618530273438,1.2499618530273438,0.2376556396484375
1.2499618530273438,1.2499618530273438,0.30731201171875
1.0504531860351562,1.020660400390625,0.259552001953125
1.2499618530273438,1.2499618530273438,0.2448272705078125
1.2499618530273438,1.2499618530273438,0.2854156494140625
1.2499618530273438,1.2499618530273438,0.398712158203125
1.2499618530273438,1.2499618530273438,0.22186279296875
1.2499618530273438,1.2499618530273438,0.2249908447265625
1.2499618530273438,1.2499618530273438,0.197906494140625
1.2499618530273438,1.2499618530273438,0.0115966796875
1.2499618530273438,1.2499618530273438,-0.2463531494140625
1.2499618530273438,1.2499618530273438,-0.1517486572265625
1.2499618530273438,1.2499618530273438,-0.23223876953125
1.2499618530273438,1.2499618530273438,-0.4029083251953125
1.2499618530273438,1.2499618530273438,-0.419921875
1.2499618530273438,1.2499618530273438,-0.3759002685546875
1.2499618530273438,1.2499618530273438,-0.45562744140625
1.0693359375,1.1309051513671875,-0.4144287109375
1.2499618530273438,1.2499618530273438,-0.2829742431640625
1.2499618530273438,1.2499618530273438,-0.32928466796875
1.2499618530273438,1.2499618530273438,-0.27984619140625
1.2499618530273438,1.2499618530273438,-0.0637054443359375
1.2499618530273438,1.2499618530273438,0.08453369140625
1.2499618530273438,1.2499618530273438,-0.0274658203125
1.2499618530273438,1.2499618530273438,0.076446533203125
1.2499618530273438,1.2499618530273438,0.208740234375
1.2499618530273438,1.2499618530273438,0.1336669921875
1.2499618530273438,1.2499618530273438,0.164947509765625
1.2499618530273438,1.2499618530273438,0.3037261962890625
1.2499618530273438,1.2499618530273438,0.271759033203125
1.2499618530273438,1.2499618530273438,0.2333831787109375
1.2499618530273438,1.2499618530273438,0.26397705078125
1.0953903198242188,1.0400390625,0.2832794189453125
1.2499618530273438,1.2499618530273438,0.3044891357421875
1.2499618530273438,1.2499618530273438,0.3936767578125
1.2499618530273438,1.2499618530273438,0.3509521484375
1.2499618530273438,1.2499618530273438,0.3582763671875
1.2499618530273438,1.2499618530273438,0.108795166015625
1.2499618530273438,1.2499618530273438,0.1718902587890625
1.2499618530273438,1.2499618530273438,-0.03173828125
1.2499618530273438,1.2499618530273438,-0.163726806640625
1.2499618530273438,1.2499618530273438,-0.202484130859375
1.2499618530273438,1.2499618530273438,-0.21484375
1.2499618530273438,1.2499618530273438,-0.41778564453125
1.2499618530273438,1.2499618530273438,-0.4280853271484375
1.2499618530273438,1.2499618530273438,-0.4480743408203125
1.2499618530273438,1.2499618530273438,-0.427703857421875
1.0956954956054688,1.1619949340820312,-0.3350830078125
1.2499618530273438,1.2499618530273438,-0.3185272216796875
1.2499618530273438,1.2499618530273438,-0.26275634765625
1.2499618530273438,1.2499618530273438,-0.218658447265625
1.2499618530273438,1.2499618530273438,-0.2013397216796875
1.2499618530273438,1.2499618530273438,-0.037384033203125
1.2499618530273438,1.2499618530273438,-0.041961669921875
1.2499618530273438,1.2499618530273438,0.0705718994140625
1.2499618530273438,1.2499618530273438,0.264892578125
1.2499618530273438,1.2499618530273438,0.17547607421875
1.2499618530273438,1.2499618530273438,0.1758575439453125
1.2499618530273438,1.2499618530273438,0.2364349365234375
1.2499618530273438,1.2499618530273438,0.225982666015625
1.2499618530273438,1.2499618530273438,0.238189697265625
1.2499618530273438,1.2499618530273438,0.2724456787109375
1.0501861572265625,1.03179931640625,0.2677154541015625
1.2499618530273438,1.2499618530273438,0.2577972412109375
1.2499618530273438,1.2499618530273438,0.260467529296875
1.2499618530273438,1.2499618530273438,0.38665771484375
1.2499618530273438,1.2499618530273438,0.2999114990234375
1.2499618530273438,1.2499618530273438,0.1560211181640625
1.2499618530273438,1.2499618530273438,0.21514892578125
1.2499618530273438,1.2499618530273438,-0.019378662109375
1.2499618530273438,1.2499618530273438,-0.111236572265625
1.2499618530273438,1.2499618530273438,-0.179443359375
1.2499618530273438,1.2499618530273438,-0.2350616455078125
1.2499618530273438,1.2499618530273438,-0.445404052734375
1.2499618530273438,1.2499618530273438,-0.4482269287109375
1.2499618530273438,1.2499618530273438,-0.413665771484375
1.2499618530273438,1.2499618530273438,-0.4720306396484375
1.1031723022460938,1.1767196655273438,-0.4233551025390625
1.2499618530273438,1.2499618530273438,-0.2721405029296875
1.2499618530273438,1.2499618530273438,-0.2508544921875
1.2499618530273438,1.2499618530273438,-0.23345947265625
1.2499618530273438,1.2499618530273438,-0.051116943359375
1.2499618530273438,1.2499618530273438,-0.0131988525390625
1.2499618530273438,1.2499618530273438,-0.0394439697265625
1.2499618530273438,1.2499618530273438,0.0742340087890625
1.2499618530273438,1.2499618530273438,0.260772705078125
1.2499618530273438,1.2499618530273438,0.2664947509765625
1.2499618530273438,1.2499618530273438,0.202789306640625
1.2499618530273438,1.2499618530273438,0.316314697265625
1.2499618530273438,1.2499618530273438,0.225372314453125
1.2499618530273438,1.2499618530273438,0.2025604248046875
1.2499618530273438,1.2499618530273438,0.2817535400390625
1.0537338256835938,1.0242080688476562,0.325775146484375
1.2499618530273438,1.2499618530273438,0.2776336669921875
1.2499618530273438,1.2499618530273438,0.369720458984375
1.2499618530273438,1.2499618530273438,0.363311767578125
1.2499618530273438,1.2499618530273438,0.259552001953125
1.2499618530273438,1.2499618530273438,0.0945281982421875
1.2499618530273438,1.2499618530273438,0.1446533203125
1.2499618530273438,1.2499618530273438,0.025634765625
1.2499618530273438,1.2499618530273438,-0.1042938232421875
1.2499618530273438,1.2499618530273438,-0.2303314208984375
1.2499618530273438,1.2499618530273438,-0.1807403564453125
1.2499618530273438,1.2499618530273438,-0.427398681640625
1.2499618530273438,1.2499618530273438,-0.388336181640625
1.2499618530273438,1.2499618530273438,-0.362701416015625
1.2499618530273438,1.2499618530273438,-0.4903411865234375
1.1197280883789062,1.1988449096679688,-0.389251708984375
1.2499618530273438,1.2499618530273438,-0.2989959716796875
1.2499618530273438,1.2499618530273438,-0.2828216552734375
1.2499618530273438,1.2499618530273438,-0.290374755859375
1.2499618530273438,1.2499618530273438,-0.0838470458984375
1.2499618530273438,1.2499618530273438,0.0250244140625
1.2499618530273438,1.2499618530273438,-0.0289154052734375
1.2499618530273438,1.2499618530273438,0.0711822509765625
1.2499618530273438,1.2499618530273438,0.12603759765625
1.2499618530273438,1.2499618530273438,0.12451171875
1.2499618530273438,1.2499618530273438,0.2053070068359375
1.2499618530273438,1.2499618530273438,0.298919677734375
1.2499618530273438,1.2499618530273438,0.26763916015625
1.2499618530273438,1.2499618530273438,0.222625732421875
1.2499618530273438,1.2499618530273438,0.2695465087890625
1.0908126831054688,1.046905517578125,0.3038787841796875
1.2499618530273438,1.2499618530273438,0.3412628173828125
1.2499618530273438,1.2499618530273438,0.3508758544921875
1.2499618530273438,1.2499618530273438,0.3922271728515625
1.2499618530273438,1.2499618530273438,0.3256988525390625
1.2499618530273438,1.2499618530273438,0.243072509765625
1.2499618530273438,1.2499618530273438,0.1792144775390625
1.2499618530273438,1.2499618530273438,0.018157958984375
1.2499618530273438,1.2499618530273438,-0.24932861328125
1.2499618530273438,1.2499618530273438,-0.17822265625
1.2499618530273438,1.2499618530273438,-0.2010345458984375
1.2499618530273438,1.2499618530273438,-0.3482818603515625
1.2499618530273438,1.2499618530273438,-0.38726806640625
1.2499618530273438,1.2499618530273438,-0.426025390625
1.2499618530273438,1.2499618530273438,-0.4833221435546875
1.1435317993164062,1.2292861938476562,-0.392608642578125
1.2499618530273438,1.2499618530273438,-0.248565673828125
1.2499618530273438,1.2499618530273438,-0.284271240234375
1.2499618530273438,1.2499618530273438,-0.2280426025390625
1.2499618530273438,1.2499618530273438,-0.1103973388671875
1.2499618530273438,1.2499618530273438,0.0229644775390625
1.2499618530273438,1.2499618530273438,0.009613037109375
1.2499618530273438,1.2499618530273438,0.08148193359375
1.2499618530273438,1.2499618530273438,0.143585205078125
1.2499618530273438,1.2499618530273438,0.252532958984375
1.2499618530273438,1.2499618530273438,0.137481689453125
1.2499618530273438,1.2499618530273438,0.28411865234375
1.2499618530273438,1.2499618530273438,0.2759552001953125
1.2499618530273438,1.2499618530273438,0.2562713623046875
1.2499618530273438,1.2499618530273438,0.3009796142578125
1.1341476440429688,1.0917282104492188,0.3542327880859375
1.2499618530273438,1.2499618530273438,0.2973175048828125
1.2499618530273438,1.2499618530273438,0.373992919921875
1.2499618530273438,1.2499618530273438,0.396728515625
1.2499618530273438,1.2499618530273438,0.2569580078125
1.2499618530273438,1.2499618530273438,0.178070068359375
1.2499618530273438,1.2499618530273438,0.185546875
1.2499618530273438,1.2499618530273438,0.05096435546875
1.2499618530273438,1.2499618530273438,-0.1325225830078125
1.2499618530273438,1.2499618530273438,-0.199127197265625
1.2499618530273438,1.2499618530273438,-0.194549560546875
1.2499618530273438,1.2499618530273438,-0.4119110107421875
1.2499618530273438,1.2499618530273438,-0.437774658203125
1.2499618530273438,1.2499618530273438,-0.40618896484375
1.2499618530273438,1.2499618530273438,-0.431976318359375
1.1613082885742188,1.2499618530273438,-0.416717529296875
1.2499618530273438,1.2499618530273438,-0.2892303466796875
1.2499618530273438,1.2499618530273438,-0.209503173828125
1.2499618530273438,1.2499618530273438,-0.2210235595703125
1.2499618530273438,1.2499618530273438,-0.0815582275390625
1.2499618530273438,1.2499618530273438,0.014495849609375
1.2499618530273438,1.2499618530273438,-0.0524139404296875
1.2499618530273438,1.2499618530273438,0.0272369384765625
1.2499618530273438,1.2499618530273438,0.229644775390625
1.2499618530273438,1.2499618530273438,0.242919921875
1.2499618530273438,1.2499618530273438,0.14190673828125
1.2499618530273438,1.2499618530273438,0.2010345458984375
1.2499618530273438,1.2499618530273438,0.2207183837890625
1.2499618530273438,1.2499618530273438,0.2574920654296875
1.2499618530273438,1.2499618530273438,0.281982421875
1.1582183837890625,1.1288833618164062,0.3215789794921875
1.2499618530273438,1.2499618530273438,0.2458953857421875
1.2499618530273438,1.2499618530273438,0.35919189453125
1.2499618530273438,1.2499618530273438,0.3778839111328125
1.2499618530273438,1.2499618530273438,0.3137969970703125
1.2499618530273438,1.2499618530273438,0.075836181640625
1.2499618530273438,1.2499618530273438,0.1654052734375
1.2499618530273438,1.2499618530273438,-0.0579833984375
1.2499618530273438,1.2499618530273438,-0.1494598388671875
1.2499618530273438,1.2499618530273438,-0.18707275390625
1.2499618530273438,1.2499618530273438,-0.2297210693359375
1.2499618530273438,1.2499618530273438,-0.4285430908203125
1.2499618530273438,1.2499618530273438,-0.4273223876953125
1.2499618530273438,1.2499618530273438,-0.3969573974609375
1.2499618530273438,1.2499618530273438,-0.4644012451171875
1.1794662475585938,1.2499618530273438,-0.40802001953125
1.2499618530273438,1.2499618530273438,-0.2913665771484375
1.2499618530273438,1.2499618530273438,-0.2700042724609375
1.2499618530273438,1.2499618530273438,-0.258026123046875
1.2499618530273438,1.2499618530273438,-0.05035400390625
1.2499618530273438,1.2499618530273438,-0.02532958984375
1.2499618530273438,1.2499618530273438,-0.016021728515625
1.2499618530273438,1.2499618530273438,0.0414276123046875
1.2499618530273438,1.2499618530273438,0.2080535888671875
1.2499618530273438,1.2499618530273438,0.19195556640625
1.2499618530273438,1.2499618530273438,0.175018310546875
1.2499618530273438,1.2499618530273438,0.19989013671875
1.2499618530273438,1.2499618530273438,0.2550506591796875
1.2499618530273438,1.2499618530273438,0.2392578125
1.2499618530273438,1.2499618530273438,0.3040313720703125
1.2010955810546875,1.1500167846679688,0.3757476806640625
1.2499618530273438,1.2499618530273438,0.276947021484375
1.2499618530273438,1.2499618530273438,0.3885650634765625
1.2499618530273438,1.2499618530273438,0.3238677978515625
1.2499618530273438,1.2499618530273438,0.2634429931640625
1.2499618530273438,1.2499618530273438,0.1573944091796875
1.2499618530273438,1.2499618530273438,0.190582275390625
1.2499618530273438,1.2499618530273438,-0.075531005859375
1.2499618530273438,1.2499618530273438,-0.17120361328125
1.2499618530273438,1.2499618530273438,-0.11199951171875
1.2499618530273438,1.2499618530273438,-0.243072509765625
1.2499618530273438,1.2499618530273438,-0.310821533203125
1.2499618530273438,1.2499618530273438,-0.510101318359375
1.2499618530273438,1.2499618530273438,-0.4050445556640625
1.2499618530273438,1.2499618530273438,-0.428314208984375
1.19537353515625,1.2488174438476562,-0.4314422607421875
1.2499618530273438,1.2499618530273438,-0.312042236328125
1.2499618530273438,1.2499618530273438,-0.260162353515625
1.2499618530273438,1.2499618530273438,-0.2584075927734375
1.2499618530273438,1.2499618530273438,-0.155029296875
1.2499618530273438,1.2499618530273438,-0.0577545166015625
1.2499618530273438,1.2499618530273438,-0.068206787109375
1.2499618530273438,1.2499618530273438,0.1686859130859375
1.2499618530273438,1.2499618530273438,0.1958465576171875
1.2499618530273438,1.2499618530273438,0.1795196533203125
1.2499618530273438,1.2499618530273438,0.198516845703125
1.2499618530273438,1.2499618530273438,0.2845001220703125
1.2499618530273438,1.2499618530273438,0.235137939453125
1.2499618530273438,1.2499618530273438,0.184173583984375
1.2499618530273438,1.2499618530273438,0.283966064453125
1.2088394165039062,1.176605224609375,0.304718017578125
1.2499618530273438,1.2499618530273438,0.3499603271484375
1.2499618530273438,1.2499618530273438,0.389251708984375
1.2499618530273438,1.2499618530273438,0.3821563720703125
1.2499618530273438,1.2499618530273438,0.25909423828125
1.2499618530273438,1.2499618530273438,0.1433563232421875
1.2499618530273438,1.2499618530273438,0.126800537109375
1.2499618530273438,1.2499618530273438,-0.029144287109375
1.2499618530273438,1.2499618530273438,-0.15869140625
1.2499618530273438,1.2499618530273438,-0.1961517333984375
1.2499618530273438,1.2499618530273438,-0.14068603515625
1.2499618530273438,1.2499618530273438,-0.4038238525390625
1.2499618530273438,1.2499618530273438,-0.41412353515625
1.2499618530273438,1.2499618530273438,-0.4422760009765625
1.2499618530273438,1.2499618530273438,-0.457611083984375
1.1419296264648438,1.2499618530273438,-0.3170013427734375
1.2499618530273438,1.2499618530273438,-0.2734375
1.2499618530273438,1.2499618530273438,-0.2890777587890625
1.2499618530273438,1.2499618530273438,-0.2565765380859375
1.2499618530273438,1.2499618530273438,-0.043182373046875
1.2499618530273438,1.2499618530273438,0.0384521484375
1.2499618530273438,1.2499618530273438,0.0089263916015625
1.2499618530273438,1.2499618530273438,0.1165008544921875
1.2499618530273438,1.2499618530273438,0.279693603515625
1.2499618530273438,1.2499618530273438,0.1952362060546875
1.2499618530273438,1.2499618530273438,0.146942138671875
1.2499618530273438,1.2499618530273438,0.2951812744140625
1.2499618530273438,1.2499618530273438,0.2655029296875
1.2499618530273438,1.2499618530273438,0.2526092529296875
1.2499618530273438,1.2499618530273438,0.2819061279296875
1.2298965454101562,1.1990737915039062,0.3351593017578125
1.2499618530273438,1.2499618530273438,0.2365875244140625
1.2499618530273438,1.2499618530273438,0.3153228759765625
1.2499618530273438,1.2499618530273438,0.32257080078125
1.2499618530273438,1.2499618530273438,0.2410888671875
1.2499618530273438,1.2499618530273438,0.29937744140625
1.2499618530273438,1.2499618530273438,0.12969970703125
1.2499618530273438,1.2499618530273438,0.0112152099609375
1.2499618530273438,1.2499618530273438,-0.18096923828125
1.2499618530273438,1.2499618530273438,-0.14190673828125
1.2499618530273438,1.2499618530273438,-0.2408599853515625
1.2499618530273438,1.2499618530273438,-0.3849029541015625
1.2499618530273438,1.2499618530273438,-0.4589080810546875
1.2499618530273438,1.2499618530273438,-0.49560546875
1.2499618530273438,1.2499618530273438,-0.50262451171875
1.2023162841796875,1.2499618530273438,-0.38665771484375
1.2499618530273438,1.2499618530273438,-0.2623748779296875
1.2499618530273438,1.2499618530273438,-0.2695465087890625
1.2499618530273438,1.2499618530273438,-0.2264404296875
1.2499618530273438,1.2499618530273438,-0.1685333251953125
1.2499618530273438,1.2499618530273438,-0.097198486328125
1.2499618530273438,1.2499618530273438,-0.0565338134765625
1.2499618530273438,1.2499618530273438,0.12481689453125
1.2499618530273438,1.2499618530273438,0.2007293701171875
1.2499618530273438,1.2499618530273438,0.21636962890625
1.2499618530273438,1.2499618530273438,0.160980224609375
1.2499618530273438,1.2499618530273438,0.277099609375
1.2499618530273438,1.2499618530273438,0.258636474609375
1.2499618530273438,1.2499618530273438,0.2280426025390625
1.2499618530273438,1.2499618530273438,0.3600311279296875
1.2499618530273438,1.2176895141601562,0.325469970703125
1.2499618530273438,1.2499618530273438,0.2852630615234375
1.2499618530273438,1.2499618530273438,0.3722381591796875
1.2499618530273438,1.2499618530273438,0.3653717041015625
1.2499618530273438,1.2499618530273438,0.1438140869140625
1.2499618530273438,1.2499618530273438,0.200653076171875
1.2499618530273438,1.2499618530273438,0.233154296875
1.2499618530273438,1.2499618530273438,-0.0345611572265625
1.2499618530273438,1.2499618530273438,-0.1679229736328125
1.2499618530273438,1.2499618530273438,-0.1853179931640625
1.2499618530273438,1.2499618530273438,-0.263671875
1.2499618530273438,1.2499618530273438,-0.4378509521484375
1.2499618530273438,1.2499618530273438,-0.4178619384765625
1.2499618530273438,1.2499618530273438,-0.4000091552734375
1.2499618530273438,1.2499618530273438,-0.4975128173828125
1.2311172485351562,1.2499618530273438,-0.386505126953125
1.2499618530273438,1.2499618530273438,-0.2748870849609375
1.2499618530273438,1.2499618530273438,-0.3000640869140625
1.2499618530273438,1.2499618530273438,-0.098876953125
1.2499618530273438,1.2499618530273438,-0.1052093505859375
1.2499618530273438,1.2499618530273438,-0.0716400146484375
1.2499618530273438,1.2499618530273438,-0.1180267333984375
1.2499618530273438,1.2499618530273438,0.1092529296875
1.2499618530273438,1.2499618530273438,0.2573394775390625
1.2499618530273438,1.2499618530273438,0.1941680908203125
1.2499618530273438,1.2499618530273438,0.203094482421875
1.2499618530273438,1.2499618530273438,0.2245330810546875
1.2499618530273438,1.2499618530273438,0.2031707763671875
1.2499618530273438,1.2499618530273438,0.22491455078125
1.2499618530273438,1.2499618530273438,0.294189453125
1.2499618530273438,1.21612548828125,0.314483642578125
1.2499618530273438,1.2499618530273438,0.2991485595703125
1.2499618530273438,1.2499618530273438,0.3946685791015625
1.2499618530273438,1.2499618530273438,0.4439544677734375
1.2499618530273438,1.2499618530273438,0.2503204345703125
1.2499618530273438,1.2499618530273438,0.1776123046875
1.2499618530273438,1.2499618530273438,0.196075439453125
1.2499618530273438,1.2499618530273438,-0.0441741943359375
1.2499618530273438,1.2499618530273438,-0.1859283447265625
1.2499618530273438,1.2499618530273438,-0.1287841796875
1.2499618530273438,1.2499618530273438,-0.2451324462890625
1.2499618530273438,1.2499618530273438,-0.377960205078125
1.2499618530273438,1.2499618530273438,-0.4340362548828125
1.2499618530273438,1.2499618530273438,-0.404205322265625
1.2499618530273438,1.2499618530273438,-0.447998046875
1.2420272827148438,1.2499618530273438,-0.3725433349609375
1.2499618530273438,1.2499618530273438,-0.3047943115234375
1.2499618530273438,1.2499618530273438,-0.29571533203125
1.2499618530273438,1.2499618530273438,-0.1390838623046875
1.2499618530273438,1.2499618530273438,-0.0597381591796875
1.2499618530273438,1.2499618530273438,0.0017547607421875
1.2499618530273438,1.2499618530273438,-0.019378662109375
1.2499618530273438,1.2499618530273438,0.1039886474609375
1.2499618530273438,1.2499618530273438,0.2106475830078125
1.2499618530273438,1.2499618530273438,0.1288604736328125
1.2499618530273438,1.2499618530273438,0.1580047607421875
1.2499618530273438,1.2499618530273438,0.3130340576171875
1.2499618530273438,1.2499618530273438,0.2919769287109375
1.2499618530273438,1.2499618530273438,0.1959228515625
1.2499618530273438,1.2499618530273438,0.2933502197265625
1.2499618530273438,1.2114334106445312,0.284576416015625
1.2499618530273438,1.2499618530273438,0.26458740234375
1.2499618530273438,1.2499618530273438,0.3107452392578125
1.2499618530273438,1.2499618530273438,0.3031158447265625
1.2499618530273438,1.2499618530273438,0.3441619873046875
1.2499618530273438,1.2499618530273438,0.1563262939453125
1.2499618530273438,1.2499618530273438,0.20721435546875
1.2499618530273438,1.2499618530273438,-0.009613037109375
1.2499618530273438,1.2499618530273438,-0.110626220703125
1.2499618530273438,1.2499618530273438,-0.0821685791015625
1.2499618530273438,1.2499618530273438,-0.220947265625
1.2499618530273438,1.2499618530273438,-0.4180145263671875
1.2499618530273438,1.2499618530273438,-0.457611083984375
1.2499618530273438,1.2499618530273438,-0.4186248779296875
1.2499618530273438,1.2499618530273438,-0.4671478271484375
1.2499618530273438,1.2499618530273438,-0.4607391357421875
1.2499618530273438,1.2499618530273438,-0.3226470947265625
1.2499618530273438,1.2499618530273438,-0.3308868408203125
1.2499618530273438,1.2499618530273438,-0.2687835693359375
1.2499618530273438,1.2499618530273438,-0.1059722900390625
1.2499618530273438,1.2499618530273438,-0.0055694580078125
1.2499618530273438,1.2499618530273438,0.0496673583984375
1.2499618530273438,1.2499618530273438,0.1274871826171875
1.2499618530273438,1.2499618530273438,0.2681732177734375
1.2499618530273438,1.2499618530273438,0.218505859375
1.2499618530273438,1.2499618530273438,0.2141571044921875
1.2499618530273438,1.2499618530273438,0.27679443359375
1.2499618530273438,1.2499618530273438,0.261383056640625
1.2499618530273438,1.2499618530273438,0.17181396484375
1.2499618530273438,1.2499618530273438,0.2748870849609375
1.2499618530273438,1.2248611450195312,0.350799560546875
1.2499618530273438,1.2499618530273438,0.3437042236328125
1.2499618530273438,1.2499618530273438,0.439453125
1.2499618530273438,1.2499618530273438,0.439300537109375
1.2499618530273438,1.2499618530273438,0.234527587890625
1.2499618530273438,1.2499618530273438,0.204315185546875
1.2499618530273438,1.2499618530273438,0.1624298095703125
1.2499618530273438,1.2499618530273438,-0.0836944580078125
1.2499618530273438,1.2499618530273438,-0.1355743408203125
1.2499618530273438,1.2499618530273438,-0.205078125
1.2499618530273438,1.2499618530273438,-0.23651123046875
1.2499618530273438,1.2499618530273438,-0.3856658935546875
1.2499618530273438,1.2499618530273438,-0.477447509765625
1.2499618530273438,1.2499618530273438,-0.388336181640625
1.2499618530273438,1.2499618530273438,-0.447845458984375
1.2499618530273438,1.2499618530273438,-0.4276275634765625
1.2499618530273438,1.2499618530273438,-0.2899169921875
1.2499618530273438,1.2499618530273438,-0.2602386474609375
1.2499618530273438,1.2499618530273438,-0.1773834228515625
1.2499618530273438,1.2499618530273438,-0.0988006591796875
1.2499618530273438,1.2499618530273438,-0.014190673828125
1.2499618530273438,1.2499618530273438,-0.030364990234375
1.2499618530273438,1.2499618530273438,0.057525634765625
1.2499618530273438,1.2499618530273438,0.206298828125
1.2499618530273438,1.2499618530273438,0.1952362060546875
1.2499618530273438,1.2499618530273438,0.1552581787109375
1.2499618530273438,1.2499618530273438,0.2362060546875
1.2499618530273438,1.2499618530273438,0.2626800537109375
1.2499618530273438,1.2499618530273438,0.2909088134765625
1.2499618530273438,1.2451553344726562,0.2809906005859375
1.2282943725585938,1.1961746215820312,0.3314208984375
1.2499618530273438,1.2499618530273438,0.2869415283203125
1.2499618530273438,1.2499618530273438,0.3841400146484375
1.2499618530273438,1.2499618530273438,0.4022979736328125
1.2499618530273438,1.2499618530273438,0.2181243896484375
1.2499618530273438,1.2499618530273438,0.2323150634765625
1.2499618530273438,1.2499618530273438,0.0787353515625
1.2499618530273438,1.2499618530273438,-0.0605010986328125
1.2499618530273438,1.2499618530273438,-0.1102447509765625
1.2499618530273438,1.2499618530273438,-0.218048095703125
1.2499618530273438,1.2499618530273438,-0.2573394775390625
1.2499618530273438,1.2499618530273438,-0.35369873046875
1.2499618530273438,1.2499618530273438,-0.4279327392578125
1.2499618530273438,1.2499618530273438,-0.460357666015625
1.2499618530273438,1.2499618530273438,-0.4744720458984375
1.2499618530273438,1.2499618530273438,-0.3923797607421875
1.2499618530273438,1.2499618530273438,-0.387725830078125
1.2499618530273438,1.2499618530273438,-0.2883148193359375
1.2499618530273438,1.2499618530273438,-0.14495849609375
1.2499618530273438,1.2499618530273438,-0.0652313232421875
1.2499618530273438,1.2499618530273438,-0.03631591796875
1.2499618530273438,1.2499618530273438,-0.067138671875
1.2499618530273438,1.2499618530273438,0.140228271484375
1.2499618530273438,1.2499618530273438,0.2105712890625
1.2499618530273438,1.2499618530273438,0.1318359375
1.2499618530273438,1.2499618530273438,0.168609619140625
1.2499618530273438,1.2499618530273438,0.277252197265625
1.2499618530273438,1.2499618530273438,0.338287353515625
1.2499618530273438,1.2499618530273438,0.23681640625
1.2499618530273438,1.2369155883789062,0.3380584716796875
1.2337875366210938,1.2070846557617188,0.3603363037109375
1.2499618530273438,1.2499618530273438,0.323486328125
1.2499618530273438,1.2499618530273438,0.3665924072265625
1.2499618530273438,1.2499618530273438,0.3530120849609375
1.2499618530273438,1.2499618530273438,0.2320098876953125
1.2499618530273438,1.2499618530273438,0.14984130859375
1.2499618530273438,1.2499618530273438,0.14129638671875
1.2499618530273438,1.2499618530273438,0.00640869140625
1.2499618530273438,1.2499618530273438,-0.198211669921875
1.2499618530273438,1.2499618530273438,-0.15167236328125
1.2499618530273438,1.2499618530273438,-0.226593017578125
1.2499618530273438,1.2499618530273438,-0.39794921875
1.2499618530273438,1.2499618530273438,-0.41778564453125
1.2499618530273438,1.2499618530273438,-0.4160308837890625
1.2499618530273438,1.2499618530273438,-0.4503631591796875
1.2499618530273438,1.2499618530273438,-0.4161834716796875
1.2499618530273438,1.2499618530273438,-0.27374267578125
1.2499618530273438,1.2499618530273438,-0.3118896484375
1.2499618530273438,1.2499618530273438,-0.164337158203125
1.2499618530273438,1.2499618530273438,-0.1213836669921875
1.2499618530273438,1.2499618530273438,-0.06683349609375
1.2499618530273438,1.2499618530273438,-0.0395965576171875
1.2499618530273438,1.2499618530273438,0.2199554443359375
1.2499618530273438,1.2499618530273438,0.211029052734375
1.2499618530273438,1.2499618530273438,0.1959228515625
1.2499618530273438,1.2499618530273438,0.212554931640625
1.2499618530273438,1.2499618530273438,0.2515411376953125
1.2499618530273438,1.2499618530273438,0.2869415283203125
1.2499618530273438,1.2499618530273438,0.2201080322265625
1.2499618530273438,1.21917724609375,0.2947235107421875
1.2499618530273438,1.2388992309570312,0.335845947265625
1.2499618530273438,1.2499618530273438,0.346221923828125
1.2499618530273438,1.2499618530273438,0.3815460205078125
1.2499618530273438,1.2499618530273438,0.3932952880859375
1.2499618530273438,1.2499618530273438,0.1871490478515625
1.2499618530273438,1.2499618530273438,0.2684783935546875
1.2499618530273438,1.2499618530273438,0.120086669921875
1.2499618530273438,1.2499618530273438,-0.0392913818359375
1.2499618530273438,1.2499618530273438,-0.1868438720703125
1.2499618530273438,1.2499618530273438,-0.181121826171875
1.2499618530273438,1.2499618530273438,-0.2805328369140625
1.2499618530273438,1.2499618530273438,-0.3841400146484375
1.2499618530273438,1.2499618530273438,-0.41656494140625
1.2499618530273438,1.2499618530273438,-0.439910888671875
1.2064361572265625,1.2499618530273438,-0.447235107421875
1.2499618530273438,1.2499618530273438,-0.4398345947265625
1.2499618530273438,1.2499618530273438,-0.2754974365234375
1.2499618530273438,1.2499618530273438,-0.2703094482421875
1.2499618530273438,1.2499618530273438,-0.1976776123046875
1.2499618530273438,1.2499618530273438,-0.0865936279296875
1.2499618530273438,1.2499618530273438,-0.11383056640625
1.2499618530273438,1.2499618530273438,-0.069580078125
1.2499618530273438,1.2499618530273438,0.0629425048828125
1.2499618530273438,1.2499618530273438,0.19287109375
1.2499618530273438,1.2499618530273438,0.18341064453125
1.2499618530273438,1.2499618530273438,0.173797607421875
1.2499618530273438,1.2499618530273438,0.2899932861328125
1.2499618530273438,1.2499618530273438,0.294952392578125
1.2499618530273438,1.2499618530273438,0.2164459228515625
1.2499618530273438,1.2221145629882812,0.3145599365234375
1.2499618530273438,1.2499618530273438,0.316009521484375
1.2499618530273438,1.2499618530273438,0.263671875
1.2499618530273438,1.2499618530273438,0.386199951171875
1.2499618530273438,1.2499618530273438,0.3473663330078125
1.2499618530273438,1.2499618530273438,0.2768707275390625
1.2499618530273438,1.2499618530273438,0.16510009765625
1.2499618530273438,1.2499618530273438,0.1263427734375
1.2499618530273438,1.2499618530273438,-0.05706787109375
1.2499618530273438,1.2499618530273438,-0.0792694091796875
1.2499618530273438,1.2499618530273438,-0.1682281494140625
1.2499618530273438,1.2499618530273438,-0.29052734375
1.2499618530273438,1.2499618530273438,-0.392913818359375
1.2499618530273438,1.2499618530273438,-0.4692840576171875
1.2499618530273438,1.2499618530273438,-0.411529541015625
1.2095260620117188,1.2499618530273438,-0.4532623291015625
1.2499618530273438,1.2499618530273438,-0.381622314453125
1.2499618530273438,1.2499618530273438,-0.3134918212890625
1.2499618530273438,1.2499618530273438,-0.321807861328125
1.2499618530273438,1.2499618530273438,-0.30059814453125
1.2499618530273438,1.2499618530273438,-0.0875091552734375
1.2499618530273438,1.2499618530273438,-0.0333404541015625
1.2499618530273438,1.2499618530273438,0.037689208984375
1.2499618530273438,1.2499618530273438,0.1812744140625
1.2499618530273438,1.2499618530273438,0.2751922607421875
1.2499618530273438,1.2499618530273438,0.15380859375
1.2499618530273438,1.2499618530273438,0.1789093017578125
1.2499618530273438,1.2499618530273438,0.2808380126953125
1.2499618530273438,1.2499618530273438,0.2931976318359375
1.2499618530273438,1.2499618530273438,0.247039794921875
1.2499618530273438,1.2131881713867188,0.2321624755859375
1.2499618530273438,1.2499618530273438,0.3787994384765625
1.2499618530273438,1.2499618530273438,0.279083251953125
1.2499618530273438,1.2499618530273438,0.390472412109375
1.2499618530273438,1.2499618530273438,0.4064178466796875
1.2499618530273438,1.2499618530273438,0.098419189453125
1.2499618530273438,1.2499618530273438,0.0725555419921875
1.2499618530273438,1.2499618530273438,0.1851654052734375
1.2499618530273438,1.2499618530273438,-0.0833892822265625
1.2499618530273438,1.2499618530273438,-0.128936767578125
1.2499618530273438,1.2499618530273438,-0.160675048828125
1.2499618530273438,1.2499618530273438,-0.2759552001953125
1.2499618530273438,1.2499618530273438,-0.408477783203125
1.2499618530273438,1.2499618530273438,-0.42266845703125
1.2499618530273438,1.2499618530273438,-0.418243408203125
1.1824417114257812,1.2499618530273438,-0.452728271484375
1.2499618530273438,1.2499618530273438,-0.3783416748046875
1.2499618530273438,1.2499618530273438,-0.1885986328125
1.2499618530273438,1.2499618530273438,-0.333099365234375
1.2499618530273438,1.2499618530273438,-0.1494598388671875
1.2499618530273438,1.2499618530273438,-0.0372314453125
1.2499618530273438,1.2499618530273438,-0.0637054443359375
1.2499618530273438,1.2499618530273438,-0.081634521484375
1.2499618530273438,1.2499618530273438,0.091094970703125
1.2499618530273438,1.2499618530273438,0.1653289794921875
1.2499618530273438,1.2499618530273438,0.1746368408203125
1.2499618530273438,1.2499618530273438,0.18951416015625
1.2499618530273438,1.2499618530273438,0.26885986328125
1.2499618530273438,1.2499618530273438,0.2735137939453125
1.2499618530273438,1.2499618530273438,0.2390289306640625
1.2499618530273438,1.2107086181640625,0.33294677734375
1.2499618530273438,1.2499618530273438,0.3264617919921875
1.2499618530273438,1.2499618530273438,0.30609130859375
1.2499618530273438,1.2499618530273438,0.302581787109375
1.2499618530273438,1.2499618530273438,0.290679931640625
1.2499618530273438,1.2499618530273438,0.2115631103515625
1.2499618530273438,1.2499618530273438,0.161285400390625
1.2499618530273438,1.2499618530273438,0.149078369140625
1.2499618530273438,1.2499618530273438,-0.0803375244140625
1.2499618530273438,1.2499618530273438,-0.142822265625
1.2499618530273438,1.2499618530273438,-0.1682281494140625
1.2499618530273438,1.2499618530273438,-0.258636474609375
1.2499618530273438,1.2499618530273438,-0.3844451904296875
1.2499618530273438,1.2499618530273438,-0.433197021484375
1.2499618530273438,1.2499618530273438,-0.4169464111328125
1.16058349609375,1.2266159057617188,-0.48614501953125
1.2499618530273438,1.2499618530273438,-0.3794097900390625
1.2499618530273438,1.2499618530273438,-0.320281982421875
1.2499618530273438,1.2499618530273438,-0.360565185546875
1.2499618530273438,1.2499618530273438,-0.2214813232421875
1.2499618530273438,1.2499618530273438,-0.157318115234375
1.2499618530273438,1.2499618530273438,-0.0089263916015625
1.2499618530273438,1.2499618530273438,-0.0543212890625
1.2499618530273438,1.2499618530273438,0.089111328125
1.2499618530273438,1.2499618530273438,0.24383544921875
1.2499618530273438,1.2499618530273438,0.194549560546875
1.2499618530273438,1.2499618530273438,0.23223876953125
1.2499618530273438,1.2499618530273438,0.2703094482421875
1.2499618530273438,1.2499618530273438,0.279388427734375
1.2499618530273438,1.2499618530273438,0.25146484375
1.2276458740234375,1.18499755859375,0.3018951416015625
1.2499618530273438,1.2499618530273438,0.262298583984375
1.2499618530273438,1.2499618530273438,0.2285003662109375
1.2499618530273438,1.2499618530273438,0.4473876953125
1.2499618530273438,1.2499618530273438,0.2996826171875
1.2499618530273438,1.2499618530273438,0.1744842529296875
1.2499618530273438,1.2499618530273438,0.1866912841796875
1.2499618530273438,1.2499618530273438,0.0913238525390625
1.2499618530273438,1.2499618530273438,-0.0421905517578125
1.2499618530273438,1.2499618530273438,-0.118408203125
1.2499618530273438,1.2499618530273438,-0.2431488037109375
1.2499618530273438,1.2499618530273438,-0.264129638671875
1.2499618530273438,1.2499618530273438,-0.3961944580078125
1.2499618530273438,1.2499618530273438,-0.450286865234375
1.2499618530273438,1.2499618530273438,-0.4160308837890625
1.17095947265625,1.217041015625,-0.4827117919921875
1.2499618530273438,1.2499618530273438,-0.4683685302734375
1.2499618530273438,1.2499618530273438,-0.2591705322265625
1.2499618530273438,1.2499618530273438,-0.2838897705078125
1.2499618530273438,1.2499618530273438,-0.3350830078125
1.2499618530273438,1.2499618530273438,-0.041046142578125
1.2499618530273438,1.2499618530273438,0.02532958984375
1.2499618530273438,1.2499618530273438,-0.067138671875
1.2499618530273438,1.2499618530273438,0.214385986328125
1.2499618530273438,1.2499618530273438,0.1718902587890625
1.2499618530273438,1.2499618530273438,0.1654815673828125
1.2499618530273438,1.2499618530273438,0.214691162109375
1.2499618530273438,1.2499618530273438,0.3249359130859375
1.2499618530273438,1.2499618530273438,0.2303314208984375
1.2499618530273438,1.2499618530273438,0.224151611328125
1.2485122680664062,1.1674118041992188,0.351715087890625
1.2499618530273438,1.2499618530273438,0.272064208984375
1.2499618530273438,1.2499618530273438,0.2983856201171875
1.2499618530273438,1.2499618530273438,0.364990234375
1.2499618530273438,1.2499618530273438,0.4199981689453125
1.2499618530273438,1.2499618530273438,0.1686859130859375
1.2499618530273438,1.2499618530273438,0.2147674560546875
1.2499618530273438,1.2499618530273438,0.0862884521484375
1.2499618530273438,1.2499618530273438,-0.01678466796875
1.2499618530273438,1.2499618530273438,-0.102081298828125
1.2499618530273438,1.2499618530273438,-0.22216796875
1.2499618530273438,1.2499618530273438,-0.276947021484375
1.2499618530273438,1.2499618530273438,-0.390167236328125
1.2499618530273438,1.2499618530273438,-0.4534912109375
1.2499618530273438,1.2499618530273438,-0.384521484375
1.1455917358398438,1.2035369873046875,-0.49774169921875
1.2499618530273438,1.2499618530273438,-0.338287353515625
1.2499618530273438,1.2499618530273438,-0.3307342529296875
1.2499618530273438,1.2499618530273438,-0.26611328125
1.2499618530273438,1.2499618530273438,-0.1100921630859375
1.2499618530273438,1.2499618530273438,-0.063018798828125
1.2499618530273438,1.2499618530273438,0.0447845458984375
1.2499618530273438,1.2499618530273438,-0.0331878662109375
1.2499618530273438,1.2499618530273438,0.22857666015625
1.2499618530273438,1.2499618530273438,0.203094482421875
1.2499618530273438,1.2499618530273438,0.1572418212890625
1.2499618530273438,1.2499618530273438,0.2162933349609375
1.2499618530273438,1.2499618530273438,0.2768707275390625
1.2499618530273438,1.2499618530273438,0.25299072265625
1.2499618530273438,1.2499618530273438,0.2442169189453125
1.2160110473632812,1.1461639404296875,0.3400421142578125
1.2499618530273438,1.2499618530273438,0.25482177734375
1.2499618530273438,1.2499618530273438,0.2613067626953125
1.2499618530273438,1.2499618530273438,0.4024505615234375
1.2499618530273438,1.2499618530273438,0.29998779296875
1.2499618530273438,1.2499618530273438,0.2088165283203125
1.2499618530273438,1.2499618530273438,0.167083740234375
1.2499618530273438,1.2499618530273438,0.1274871826171875
1.2499618530273438,1.2499618530273438,-0.02532958984375
1.2499618530273438,1.2499618530273438,-0.182647705078125
1.2499618530273438,1.2499618530273438,-0.1805877685546875
1.2499618530273438,1.2499618530273438,-0.3252410888671875
1.2499618530273438,1.2499618530273438,-0.4167938232421875
1.2499618530273438,1.2499618530273438,-0.5083465576171875
1.2499618530273438,1.2499618530273438,-0.4327392578125
1.1263656616210938,1.1869049072265625,-0.483551025390625
1.2499618530273438,1.2499618530273438,-0.35308837890625
1.2499618530273438,1.2499618530273438,-0.290985107421875
1.2499618530273438,1.2499618530273438,-0.3314971923828125
1.2499618530273438,1.2499618530273438,-0.2254486083984375
1.2499618530273438,1.2499618530273438,-0.0118255615234375
1.2499618530273438,1.2499618530273438,-0.0237274169921875
1.2499618530273438,1.2499618530273438,-0.056610107421875
1.2499618530273438,1.2499618530273438,0.1682281494140625
1.2499618530273438,1.2499618530273438,0.176544189453125
1.2499618530273438,1.2499618530273438,0.14129638671875
1.2499618530273438,1.2499618530273438,0.1738739013671875
1.2499618530273438,1.2499618530273438,0.2962493896484375
1.2499618530273438,1.2499618530273438,0.19989013671875
1.2499618530273438,1.2499618530273438,0.21759033203125
1.1841201782226562,1.1209487915039062,0.25604248046875
1.2499618530273438,1.2499618530273438,0.3006744384765625
1.2499618530273438,1.2499618530273438,0.402374267578125
1.2499618530273438,1.2499618530273438,0.3670501708984375
1.2499618530273438,1.2499618530273438,0.3514862060546875
1.2499618530273438,1.2499618530273438,0.1871490478515625
1.2499618530273438,1.2499618530273438,0.1914215087890625
1.2499618530273438,1.2499618530273438,0.180816650390625
1.2499618530273438,1.2499618530273438,-0.1446533203125
1.2499618530273438,1.2499618530273438,-0.15289306640625
1.2499618530273438,1.2499618530273438,-0.161285400390625
1.2499618530273438,1.2499618530273438,-0.342254638671875
1.2499618530273438,1.2499618530273438,-0.41961669921875
1.2499618530273438,1.2499618530273438,-0.4791259765625
1.2499618530273438,1.2499618530273438,-0.4254150390625
1.1251449584960938,1.1764907836914062,-0.4517364501953125
1.2499618530273438,1.2499618530273438,-0.397491455078125
1.2499618530273438,1.2499618530273438,-0.313873291015625
1.2499618530273438,1.2499618530273438,-0.3023529052734375
1.2499618530273438,1.2499618530273438,-0.199737548828125
1.2499618530273438,1.2499618530273438,-0.1096343994140625
1.2499618530273438,1.2499618530273438,-0.009765625
1.2499618530273438,1.2499618530273438,-0.016632080078125
1.2499618530273438,1.2499618530273438,0.21087646484375
1.2499618530273438,1.2499618530273438,0.177764892578125
1.2499618530273438,1.2499618530273438,0.1145172119140625
1.2499618530273438,1.2499618530273438,0.23406982421875
1.2499618530273438,1.2499618530273438,0.278472900390625
1.2499618530273438,1.2499618530273438,0.2557373046875
1.2499618530273438,1.2499618530273438,0.2570343017578125
1.1545944213867188,1.0985183715820312,0.3324127197265625
1.2499618530273438,1.2499618530273438,0.341949462890625
1.2499618530273438,1.2499618530273438,0.3292083740234375
1.2499618530273438,1.2499618530273438,0.39306640625
1.2499618530273438,1.2499618530273438,0.4195404052734375
1.2499618530273438,1.2499618530273438,0.2205657958984375
1.2499618530273438,1.2499618530273438,0.150604248046875
1.2499618530273438,1.2499618530273438,0.097808837890625
1.2499618530273438,1.2499618530273438,-0.177154541015625
1.2499618530273438,1.2499618530273438,-0.095672607421875
1.2499618530273438,1.2499618530273438,-0.18768310546875
1.2499618530273438,1.2499618530273438,-0.264129638671875
1.2499618530273438,1.2499618530273438,-0.3964996337890625
1.2499618530273438,1.2499618530273438,-0.450439453125
1.2499618530273438,1.2499618530273438,-0.4400634765625
1.1061477661132812,1.1717987060546875,-0.4238128662109375
1.2499618530273438,1.2499618530273438,-0.3658294677734375
1.2499618530273438,1.2499618530273438,-0.2845001220703125
1.2499618530273438,1.2499618530273438,-0.3043365478515625
1.2499618530273438,1.2499618530273438,-0.18524169921875
1.2499618530273438,1.2499618530273438,-0.0746917724609375
1.2499618530273438,1.2499618530273438,0.0115203857421875
1.2499618530273438,1.2499618530273438,-0.06072998046875
1.2499618530273438,1.2499618530273438,0.2031707763671875
1.2499618530273438,1.2499618530273438,0.2019500732421875
1.2499618530273438,1.2499618530273438,0.164642333984375
1.2499618530273438,1.2499618530273438,0.11932373046875
1.2499618530273438,1.2499618530273438,0.25726318359375
1.2499618530273438,1.2499618530273438,0.326385498046875
1.2499618530273438,1.2499618530273438,0.2269744873046875
1.122589111328125,1.0634613037109375,0.299224853515625
1.2499618530273438,1.2499618530273438,0.2909088134765625
1.2499618530273438,1.2499618530273438,0.2881622314453125
1.2499618530273438,1.2499618530273438,0.3946685791015625
1.2499618530273438,1.2499618530273438,0.3183746337890625
1.2499618530273438,1.2499618530273438,0.1178741455078125
1.2499618530273438,1.2499618530273438,0.18829345703125
1.2499618530273438,1.2499618530273438,0.1581573486328125
1.2499618530273438,1.2499618530273438,-0.0676727294921875
1.2499618530273438,1.2499618530273438,-0.1717376708984375
1.2499618530273438,1.2499618530273438,-0.17425537109375
1.2499618530273438,1.2499618530273438,-0.3170013427734375
1.2499618530273438,1.2499618530273438,-0.4454803466796875
1.2499618530273438,1.2499618530273438,-0.452880859375
1.2499618530273438,1.2499618530273438,-0.42816162109375
1.1038970947265625,1.1509323120117188,-0.484466552734375
1.2499618530273438,1.2499618530273438,-0.377349853515625
1.2499618530273438,1.2499618530273438,-0.230865478515625
1.2499618530273438,1.2499618530273438,-0.2835845947265625
1.2499618530273438,1.2499618530273438,-0.201873779296875
1.2499618530273438,1.2499618530273438,-0.0734710693359375
1.2499618530273438,1.2499618530273438,0.0019073486328125
1.2499618530273438,1.2499618530273438,-0.020751953125
1.2499618530273438,1.2499618530273438,0.1955413818359375
1.2499618530273438,1.2499618530273438,0.17425537109375
1.2499618530273438,1.2499618530273438,0.1923370361328125
1.2499618530273438,1.2499618530273438,0.1840972900390625
1.2499618530273438,1.2499618530273438,0.273284912109375
1.2499618530273438,1.2499618530273438,0.22003173828125
1.2499618530273438,1.2499618530273438,0.20050048828125
1.1121368408203125,1.0528564453125,0.3089141845703125
1.2499618530273438,1.2499618530273438,0.31005859375
1.2499618530273438,1.2499618530273438,0.33050537109375
1.2499618530273438,1.2499618530273438,0.4524993896484375
1.2499618530273438,1.2499618530273438,0.355072021484375
1.2499618530273438,1.2499618530273438,0.200958251953125
1.2499618530273438,1.2499618530273438,0.151519775390625
1.2499618530273438,1.2499618530273438,0.0424957275390625
1.2499618530273438,1.2499618530273438,-0.0502777099609375
1.2499618530273438,1.2499618530273438,-0.131072998046875
1.2499618530273438,1.2499618530273438,-0.172882080078125
1.2499618530273438,1.2499618530273438,-0.300445556640625
1.2499618530273438,1.2499618530273438,-0.4302978515625
1.2499618530273438,1.2499618530273438,-0.469818115234375
1.2499618530273438,1.2499618530273438,-0.461883544921875
1.05316162109375,1.13128662109375,-0.448455810546875
1.2499618530273438,1.2499618530273438,-0.425567626953125
1.2499618530273438,1.2499618530273438,-0.2957916259765625
1.2499618530273438,1.2499618530273438,-0.310211181640625
1.2499618530273438,1.2499618530273438,-0.1100921630859375
1.2499618530273438,1.2499618530273438,-0.05645751953125
1.2499618530273438,1.2499618530273438,-0.048370361328125
1.2499618530273438,1.2499618530273438,-0.015716552734375
1.2499618530273438,1.2499618530273438,0.157318115234375
1.2499618530273438,1.2499618530273438,0.189971923828125
1.2499618530273438,1.2499618530273438,0.18890380859375
1.2499618530273438,1.2499618530273438,0.2307891845703125
1.2499618530273438,1.2499618530273438,0.230712890625
1.2499618530273438,1.2499618530273438,0.268402099609375
1.2499618530273438,1.2499618530273438,0.2252197265625
1.0963821411132812,1.0470199584960938,0.2976226806640625
1.2499618530273438,1.2499618530273438,0.26092529296875
1.2499618530273438,1.2499618530273438,0.295867919921875
1.2499618530273438,1.2499618530273438,0.408782958984375
1.2499618530273438,1.2499618530273438,0.4167938232421875
1.2499618530273438,1.2499618530273438,0.218658447265625
1.2499618530273438,1.2499618530273438,0.1451873779296875
1.2499618530273438,1.2499618530273438,0.0777435302734375
1.2499618530273438,1.2499618530273438,-0.0719451904296875
1.2499618530273438,1.2499618530273438,-0.130767822265625
1.2499618530273438,1.2499618530273438,-0.1828765869140625
1.2499618530273438,1.2499618530273438,-0.292205810546875
1.2499618530273438,1.2499618530273438,-0.42694091796875
1.2499618530273438,1.2499618530273438,-0.481109619140625
1.2499618530273438,1.2499618530273438,-0.438995361328125
1.0748291015625,1.0982894897460938,-0.476531982421875
1.2499618530273438,1.2499618530273438,-0.342559814453125
1.2499618530273438,1.2499618530273438,-0.2858734130859375
1.2499618530273438,1.2499618530273438,-0.296630859375
1.2499618530273438,1.2499618530273438,-0.1804351806640625
1.2499618530273438,1.2499618530273438,0.001983642578125
1.2499618530273438,1.2499618530273438,-0.0574493408203125
1.2499618530273438,1.2499618530273438,-0.05157470703125
1.2499618530273438,1.2499618530273438,0.25726318359375
1.2499618530273438,1.2499618530273438,0.2400970458984375
1.2499618530273438,1.2499618530273438,0.1894378662109375
1.2499618530273438,1.2499618530273438,0.2492523193359375
1.2499618530273438,1.2499618530273438,0.2745819091796875
1.2499618530273438,1.2499618530273438,0.2642059326171875
1.2499618530273438,1.2499618530273438,0.22918701171875
1.0740280151367188,1.0222625732421875,0.3633880615234375
1.2499618530273438,1.2499618530273438,0.273284912109375
1.2499618530273438,1.2499618530273438,0.3141021728515625
1.2499618530273438,1.2499618530273438,0.429840087890625
1.2499618530273438,1.2499618530273438,0.2813720703125
1.2499618530273438,1.2499618530273438,0.28961181640625
1.2499618530273438,1.2499618530273438,0.2709197998046875
1.2499618530273438,1.2499618530273438,0.161285400390625
1.2499618530273438,1.2499618530273438,-0.03448486328125
1.2499618530273438,1.2499618530273438,-0.1776123046875
1.2499618530273438,1.2499618530273438,-0.15167236328125
1.2499618530273438,1.2499618530273438,-0.3435516357421875
1.2499618530273438,1.2499618530273438,-0.440826416015625
1.2499618530273438,1.2499618530273438,-0.51055908203125
1.2499618530273438,1.2499618530273438,-0.435333251953125
1.0177230834960938,1.0635757446289062,-0.5074310302734375
1.2499618530273438,1.2499618530273438,-0.4534149169921875
1.2499618530273438,1.2499618530273438,-0.2459716796875
1.2499618530273438,1.2499618530273438,-0.302734375
1.2499618530273438,1.2499618530273438,-0.2806854248046875
1.2499618530273438,1.2499618530273438,-0.1485443115234375
1.2499618530273438,1.2499618530273438,-0.0482940673828125
1.2499618530273438,1.2499618530273438,0.01190185546875
1.2499618530273438,1.2499618530273438,0.1946258544921875
1.2499618530273438,1.2499618530273438,0.1116180419921875
1.2499618530273438,1.2499618530273438,0.2481842041015625
1.2499618530273438,1.2499618530273438,0.25634765625
1.2499618530273438,1.2499618530273438,0.221099853515625
1.2499618530273438,1.2499618530273438,0.230255126953125
1.2499618530273438,1.2499618530273438,0.25604248046875
1.0959243774414062,1.00830078125,0.310516357421875
1.2499618530273438,1.2499618530273438,0.3045654296875
1.2499618530273438,1.2499618530273438,0.3426361083984375
1.2499618530273438,1.2499618530273438,0.361785888671875
1.2499618530273438,1.2499618530273438,0.3789520263671875
1.2499618530273438,1.2499618530273438,0.230865478515625
1.2499618530273438,1.2499618530273438,0.1861572265625
1.2499618530273438,1.2499618530273438,0.151214599609375
1.2499618530273438,1.2499618530273438,-0.1012420654296875
1.2499618530273438,1.2499618530273438,-0.1369476318359375
1.2499618530273438,1.2499618530273438,-0.12725830078125
1.2499618530273438,1.2499618530273438,-0.26763916015625
1.2499618530273438,1.2499618530273438,-0.406341552734375
1.2499618530273438,1.2499618530273438,-0.51177978515625
1.2499618530273438,1.2499618530273438,-0.4390716552734375
0.96343994140625,1.0497283935546875,-0.4631805419921875
1.2499618530273438,1.2499618530273438,-0.3106689453125
1.2499618530273438,1.2499618530273438,-0.2663421630859375
1.2499618530273438,1.2499618530273438,-0.3223419189453125
1.2499618530273438,1.2499618530273438,-0.18829345703125
1.2499618530273438,1.2499618530273438,-0.1186370849609375
1.2499618530273438,1.2499618530273438,0.0455474853515625
1.2499618530273438,1.2499618530273438,-0.10467529296875
1.2499618530273438,1.2499618530273438,0.192718505859375
1.2499618530273438,1.2499618530273438,0.1795196533203125
1.2499618530273438,1.2499618530273438,0.1554107666015625
1.2499618530273438,1.2499618530273438,0.15960693359375
1.2499618530273438,1.2499618530273438,0.2628326416015625
1.2499618530273438,1.2499618530273438,0.2768707275390625
1.2499618530273438,1.2499618530273438,0.2590179443359375
1.0738754272460938,1.0023880004882812,0.3710174560546875
1.2499618530273438,1.2499618530273438,0.2962493896484375
1.2499618530273438,1.2499618530273438,0.3614044189453125
1.2499618530273438,1.2499618530273438,0.3913116455078125
1.2499618530273438,1.2499618530273438,0.315093994140625
1.2499618530273438,1.2499618530273438,0.182037353515625
1.2499618530273438,1.2499618530273438,0.186309814453125
1.2499618530273438,1.2499618530273438,0.22186279296875
1.2499618530273438,1.2499618530273438,-0.1418304443359375
1.2499618530273438,1.2499618530273438,-0.1467132568359375
1.2499618530273438,1.2499618530273438,-0.203857421875
1.2499618530273438,1.2499618530273438,-0.28900146484375
1.2499618530273438,1.2499618530273438,-0.4079437255859375
1.2499618530273438,1.2499618530273438,-0.4827880859375
1.2499618530273438,1.2499618530273438,-0.438079833984375
0.9858322143554688,1.0396575927734375,-0.458984375
1.2499618530273438,1.2499618530273438,-0.3267669677734375
1.2499618530273438,1.2499618530273438,-0.2767181396484375
1.2499618530273438,1.2499618530273438,-0.3279876708984375
1.2499618530273438,1.2499618530273438,-0.238800048828125
1.2499618530273438,1.2499618530273438,-0.0580596923828125
1.2499618530273438,1.2499618530273438,-0.0162506103515625
1.2499618530273438,1.2499618530273438,-0.07904052734375
1.2499618530273438,1.2499618530273438,0.230712890625
1.2499618530273438,1.2499618530273438,0.1770782470703125
1.2499618530273438,1.2499618530273438,0.2001953125
1.2499618530273438,1.2499618530273438,0.2809906005859375
1.2499618530273438,1.2499618530273438,0.27069091796875
1.2499618530273438,1.2499618530273438,0.2050018310546875
1.2499618530273438,1.2499618530273438,0.1678466796875
1.0541152954101562,1.0015106201171875,0.35736083984375
1.2499618530273438,1.2499618530273438,0.27374267578125
1.2499618530273438,1.2499618530273438,0.2997589111328125
1.2499618530273438,1.2499618530273438,0.3781890869140625
1.2499618530273438,1.2499618530273438,0.341796875
1.2499618530273438,1.2499618530273438,0.1386260986328125
1.2499618530273438,1.2499618530273438,0.187225341796875
1.2499618530273438,1.2499618530273438,0.175628662109375
1.2499618530273438,1.2499618530273438,-0.045013427734375
1.2499618530273438,1.2499618530273438,-0.1561737060546875
1.2499618530273438,1.2499618530273438,-0.112457275390625
1.2499618530273438,1.2499618530273438,-0.348052978515625
1.2499618530273438,1.2499618530273438,-0.434112548828125
1.2499618530273438,1.2499618530273438,-0.441741943359375
1.2499618530273438,1.2499618530273438,-0.367431640625
0.9768295288085938,1.0117721557617188,-0.497283935546875
1.2499618530273438,1.2499618530273438,-0.360107421875
1.2499618530273438,1.2499618530273438,-0.300140380859375
1.2499618530273438,1.2499618530273438,-0.3212738037109375
1.2499618530273438,1.2499618530273438,-0.18402099609375
1.2499618530273438,1.2499618530273438,-0.027313232421875
1.2499618530273438,1.2499618530273438,-0.0402069091796875
1.2499618530273438,1.2499618530273438,-0.0301361083984375
1.2499618530273438,1.2499618530273438,0.18402099609375
1.2499618530273438,1.2499618530273438,0.25115966796875
1.2499618530273438,1.2499618530273438,0.140838623046875
1.2499618530273438,1.2499618530273438,0.2129364013671875
1.2499618530273438,1.2499618530273438,0.272369384765625
1.2499618530273438,1.2499618530273438,0.2834320068359375
1.2499618530273438,1.2499618530273438,0.26031494140625
1.0373687744140625,0.9619903564453125,0.3993988037109375
1.2499618530273438,1.2499618530273438,0.3037261962890625
1.2499618530273438,1.2499618530273438,0.313720703125
1.2499618530273438,1.2499618530273438,0.426177978515625
1.2499618530273438,1.2499618530273438,0.32989501953125
1.2499618530273438,1.2499618530273438,0.2872467041015625
1.2499618530273438,1.2499618530273438,0.155029296875
1.2499618530273438,1.2499618530273438,0.1374053955078125
1.2499618530273438,1.2499618530273438,-0.0962066650390625
1.2499618530273438,1.2499618530273438,-0.1526641845703125
1.2499618530273438,1.2499618530273438,-0.167694091796875
1.2499618530273438,1.2499618530273438,-0.3263092041015625
1.2499618530273438,1.2499618530273438,-0.3430938720703125
1.2499618530273438,1.2499618530273438,-0.4424285888671875
1.2499618530273438,1.2499618530273438,-0.4381561279296875
0.9817123413085938,1.0187149047851562,-0.5013275146484375
1.2499618530273438,1.2499618530273438,-0.354156494140625
1.2499618530273438,1.2499618530273438,-0.2275848388671875
1.2499618530273438,1.2499618530273438,-0.3054046630859375
1.2499618530273438,1.2499618530273438,-0.208892822265625
1.2499618530273438,1.2499618530273438,-0.04241943359375
1.2499618530273438,1.2499618530273438,-0.0830078125
1.2499618530273438,1.2499618530273438,-0.018157958984375
1.2499618530273438,1.2499618530273438,0.167999267578125
1.2499618530273438,1.2499618530273438,0.2437591552734375
1.2499618530273438,1.2499618530273438,0.1924896240234375
1.2499618530273438,1.2499618530273438,0.217437744140625
1.2499618530273438,1.2499618530273438,0.3082275390625
1.2499618530273438,1.2499618530273438,0.2863311767578125
1.2499618530273438,1.2499618530273438,0.261077880859375
1.0317611694335938,0.9537887573242188,0.360107421875
1.2499618530273438,1.2499618530273438,0.2829742431640625
1.2499618530273438,1.2499618530273438,0.2666473388671875
1.2499618530273438,1.2499618530273438,0.374298095703125
1.2499618530273438,1.2499618530273438,0.3391265869140625
1.2499618530273438,1.2499618530273438,0.197601318359375
1.2499618530273438,1.2499618530273438,0.192718505859375
1.2499618530273438,1.2499618530273438,0.0677490234375
1.2499618530273438,1.2499618530273438,-0.098419189453125
1.2499618530273438,1.2499618530273438,-0.1245880126953125
1.2499618530273438,1.2499618530273438,-0.1700592041015625
1.2499618530273438,1.2499618530273438,-0.353546142578125
1.2499618530273438,1.2499618530273438,-0.4376220703125
1.2499618530273438,1.2499618530273438,-0.4338836669921875
1.2499618530273438,1.2499618530273438,-0.43121337890625
0.9610366821289062,1.0033035278320312,-0.456390380859375
1.2499618530273438,1.2499618530273438,-0.348968505859375
1.2499618530273438,1.2499618530273438,-0.3509521484375
1.2499618530273438,1.2499618530273438,-0.289459228515625
1.2499618530273438,1.2499618530273438,-0.1421356201171875
1.2499618530273438,1.2499618530273438,-0.088653564453125
1.2499618530273438,1.2499618530273438,-0.0958251953125
1.2499618530273438,1.2499618530273438,-0.0775909423828125
1.2499618530273438,1.2499618530273438,0.19134521484375
1.2499618530273438,1.2499618530273438,0.1779937744140625
1.2499618530273438,1.2499618530273438,0.2252197265625
1.2499618530273438,1.2499618530273438,0.1696014404296875
1.2499618530273438,1.2499618530273438,0.2590179443359375
1.2499618530273438,1.2499618530273438,0.242156982421875
1.2499618530273438,1.2499618530273438,0.203094482421875
0.9957122802734375,0.9521484375,0.3165435791015625
1.2499618530273438,1.2499618530273438,0.2724456787109375
1.2499618530273438,1.2499618530273438,0.3369140625
1.2499618530273438,1.2499618530273438,0.331878662109375
1.2499618530273438,1.2499618530273438,0.41259765625
1.2499618530273438,1.2499618530273438,0.17425537109375
1.2499618530273438,1.2499618530273438,0.1767730712890625
1.2499618530273438,1.2499618530273438,0.06103515625
1.2499618530273438,1.2499618530273438,-0.15777587890625
1.2499618530273438,1.2499618530273438,-0.15655517578125
1.2499618530273438,1.2499618530273438,-0.1642608642578125
1.2499618530273438,1.2499618530273438,-0.286407470703125
1.2499618530273438,1.2499618530273438,-0.3551483154296875
1.2499618530273438,1.2499618530273438,-0.4506683349609375
1.2499618530273438,1.2499618530273438,-0.4438018798828125
0.9558868408203125,0.9949493408203125,-0.392303466796875
1.2499618530273438,1.2499618530273438,-0.33477783203125
1.2499618530273438,1.2499618530273438,-0.2562713623046875
1.2499618530273438,1.2499618530273438,-0.2957916259765625
1.2499618530273438,1.2499618530273438,-0.1364898681640625
1.2499618530273438,1.2499618530273438,0.004119873046875
1.2499618530273438,1.2499618530273438,-0.0116729736328125
1.2499618530273438,1.2499618530273438,0.008087158203125
1.2499618530273438,1.2499618530273438,0.277557373046875
1.2499618530273438,1.2499618530273438,0.173187255859375
1.2499618530273438,1.2499618530273438,0.1424407958984375
1.2499618530273438,1.2499618530273438,0.2323150634765625
1.2499618530273438,1.2499618530273438,0.3189849853515625
1.2499618530273438,1.2499618530273438,0.23590087890625
1.2499618530273438,1.2499618530273438,0.2332305908203125
0.9644317626953125,0.9214019775390625,0.319366455078125
1.2499618530273438,1.2499618530273438,0.2880859375
1.2499618530273438,1.2499618530273438,0.2825164794921875
1.2499618530273438,1.2499618530273438,0.3945159912109375
1.2499618530273438,1.2499618530273438,0.3363037109375
1.2499618530273438,1.2499618530273438,0.1850128173828125
1.2499618530273438,1.2499618530273438,0.148773193359375
1.2499618530273438,1.2499618530273438,0.0647735595703125
1.2499618530273438,1.2499618530273438,-0.1194000244140625
1.2499618530273438,1.2499618530273438,-0.10894775390625
1.2499618530273438,1.2499618530273438,-0.16021728515625
1.2499618530273438,1.2499618530273438,-0.324859619140625
1.2499618530273438,1.2499618530273438,-0.3992462158203125
1.2499618530273438,1.2499618530273438,-0.476531982421875
1.2499618530273438,1.2499618530273438,-0.4199981689453125
0.9504318237304688,1.0111236572265625,-0.4632568359375
1.2499618530273438,1.2499618530273438,-0.3087615966796875
1.2499618530273438,1.2499618530273438,-0.3289031982421875
1.2499618530273438,1.2499618530273438,-0.2799224853515625
1.2499618530273438,1.2499618530273438,-0.2849578857421875
1.2499618530273438,1.2499618530273438,-0.0213623046875
1.2499618530273438,1.2499618530273438,-0.046844482421875
1.2499618530273438,1.2499618530273438,-0.008544921875
1.2499618530273438,1.2499618530273438,0.1880645751953125
1.2499618530273438,1.2499618530273438,0.2330780029296875
1.2499618530273438,1.2499618530273438,0.1995086669921875
1.2499618530273438,1.2499618530273438,0.24383544921875
1.2499618530273438,1.2499618530273438,0.30517578125
1.2499618530273438,1.2499618530273438,0.2715301513671875
1.2499618530273438,1.2499618530273438,0.2434539794921875
0.9507369995117188,0.8940887451171875,0.3133392333984375
1.2499618530273438,1.2499618530273438,0.2858734130859375
1.2499618530273438,1.2499618530273438,0.361785888671875
1.2499618530273438,1.2499618530273438,0.386962890625
1.2499618530273438,1.2499618530273438,0.3093719482421875
1.2499618530273438,1.2499618530273438,0.2892303466796875
1.2499618530273438,1.2499618530273438,0.21331787109375
1.2499618530273438,1.2499618530273438,0.1078033447265625
1.2499618530273438,1.2499618530273438,-0.0946044921875
1.2499618530273438,1.2499618530273438,-0.1563262939453125
1.2499618530273438,1.2499618530273438,-0.1799774169921875
1.2499618530273438,1.2499618530273438,-0.3438568115234375
1.2499618530273438,1.2499618530273438,-0.3890228271484375
1.2499618530273438,1.2499618530273438,-0.4294586181640625
1.2499618530273438,1.2499618530273438,-0.4299163818359375
0.9510040283203125,1.0083770751953125,-0.4445648193359375
1.2499618530273438,1.2499618530273438,-0.3649139404296875
1.2499618530273438,1.2499618530273438,-0.253753662109375
1.2499618530273438,1.2499618530273438,-0.2960205078125
1.2499618530273438,1.2499618530273438,-0.1595306396484375
1.2499618530273438,1.2499618530273438,-0.0146484375
1.2499618530273438,1.2499618530273438,-0.0728607177734375
1.2499618530273438,1.2499618530273438,0.01617431640625
1.2499618530273438,1.2499618530273438,0.26458740234375
1.2499618530273438,1.2499618530273438,0.2313232421875
1.2499618530273438,1.2499618530273438,0.2143096923828125
1.2499618530273438,1.2499618530273438,0.303802490234375
1.2499618530273438,1.2499618530273438,0.334625244140625
1.2499618530273438,1.2499618530273438,0.29052734375
1.2499618530273438,1.2499618530273438,0.19683837890625
0.9530258178710938,0.9041213989257812,0.25665283203125
1.2499618530273438,1.2499618530273438,0.234832763671875
1.2499618530273438,1.2499618530273438,0.2886962890625
1.2499618530273438,1.2499618530273438,0.433502197265625
1.2499618530273438,1.2499618530273438,0.35430908203125
1.2499618530273438,1.2499618530273438,0.190277099609375
1.2499618530273438,1.2499618530273438,0.2337646484375
1.2499618530273438,1.2499618530273438,0.13641357421875
1.2499618530273438,1.2499618530273438,-0.10162353515625
1.2499618530273438,1.2499618530273438,-0.1853179931640625
1.2499618530273438,1.2499618530273438,-0.161895751953125
1.2499618530273438,1.2499618530273438,-0.3356170654296875
1.2499618530273438,1.2499618530273438,-0.438079833984375
1.2499618530273438,1.2499618530273438,-0.4857635498046875
1.2499618530273438,1.2499618530273438,-0.426483154296875
0.9246063232421875,0.9979629516601562,-0.44219970703125
1.2499618530273438,1.2499618530273438,-0.3475189208984375
1.2499618530273438,1.2499618530273438,-0.2797698974609375
1.2499618530273438,1.2499618530273438,-0.278472900390625
1.2499618530273438,1.2499618530273438,-0.13031005859375
1.2499618530273438,1.2499618530273438,-0.037841796875
1.2499618530273438,1.2499618530273438,0.012054443359375
1.2499618530273438,1.2499618530273438,0.0058746337890625
1.2499618530273438,1.2499618530273438,0.2150726318359375
1.2499618530273438,1.2499618530273438,0.1790618896484375
1.2499618530273438,1.2499618530273438,0.1740264892578125
1.2499618530273438,1.2499618530273438,0.2136993408203125
1.2499618530273438,1.2499618530273438,0.2634429931640625
1.2499618530273438,1.2499618530273438,0.2472686767578125
1.2499618530273438,1.2499618530273438,0.2496337890625
0.9599685668945312,0.8942031860351562,0.3326416015625
1.2499618530273438,1.2499618530273438,0.242462158203125
1.2499618530273438,1.2499618530273438,0.3084564208984375
1.2499618530273438,1.2499618530273438,0.4308319091796875
1.2499618530273438,1.2499618530273438,0.3105926513671875
1.2499618530273438,1.2499618530273438,0.198974609375
1.2499618530273438,1.2499618530273438,0.1990509033203125
1.2499618530273438,1.2499618530273438,0.1454925537109375
1.2499618530273438,1.2499618530273438,-0.125274658203125
1.2499618530273438,1.2499618530273438,-0.0980377197265625
1.2499618530273438,1.2499618530273438,-0.0962066650390625
1.2499618530273438,1.2499618530273438,-0.3670501708984375
1.2499618530273438,1.2499618530273438,-0.3990936279296875
1.2499618530273438,1.2499618530273438,-0.4132843017578125
1.2499618530273438,1.2499618530273438,-0.4593658447265625
0.9233856201171875,0.9814071655273438,-0.5019378662109375
1.2499618530273438,1.2499618530273438,-0.33782958984375
1.2499618530273438,1.2499618530273438,-0.2203369140625
1.2499618530273438,1.2499618530273438,-0.2761077880859375
1.2499618530273438,1.2499618530273438,-0.1937103271484375
1.2499618530273438,1.2499618530273438,-0.0949859619140625
1.2499618530273438,1.2499618530273438,0.0408172607421875
1.2499618530273438,1.2499618530273438,0.0186920166015625
1.2499618530273438,1.2499618530273438,0.2225494384765625
1.2499618530273438,1.2499618530273438,0.208587646484375
1.2499618530273438,1.2499618530273438,0.22796630859375
1.2499618530273438,1.2499618530273438,0.261383056640625
1.2499618530273438,1.2499618530273438,0.2719879150390625
1.2499618530273438,1.2499618530273438,0.2925872802734375
1.2499618530273438,1.2499618530273438,0.277099609375
0.9440231323242188,0.9156417846679688,0.3104400634765625
1.2499618530273438,1.2499618530273438,0.2951812744140625
1.2499618530273438,1.2499618530273438,0.3509521484375
1.2499618530273438,1.2499618530273438,0.3621673583984375
1.2499618530273438,1.2499618530273438,0.306396484375
1.2499618530273438,1.2499618530273438,0.1177978515625
1.2499618530273438,1.2499618530273438,0.2217864990234375
1.2499618530273438,1.2499618530273438,0.0766754150390625
1.2499618530273438,1.2499618530273438,0.0016021728515625
1.2499618530273438,1.2499618530273438,-0.190277099609375
1.2499618530273438,1.2499618530273438,-0.11322021484375
1.2499618530273438,1.2499618530273438,-0.329437255859375
1.2499618530273438,1.2499618530273438,-0.425872802734375
1.2499618530273438,1.2499618530273438,-0.3743743896484375
1.2499618530273438,1.2499618530273438,-0.460968017578125
0.9348678588867188,0.9735488891601562,-0.4633331298828125
1.2499618530273438,1.2499618530273438,-0.2889251708984375
1.2499618530273438,1.2499618530273438,-0.274505615234375
1.2499618530273438,1.2499618530273438,-0.2840423583984375
1.2499618530273438,1.2499618530273438,-0.267181396484375
1.2499618530273438,1.2499618530273438,-0.0281524658203125
1.2499618530273438,1.2499618530273438,-0.0547027587890625
1.2499618530273438,1.2499618530273438,0.0542449951171875
1.2499618530273438,1.2499618530273438,0.2390289306640625
1.2499618530273438,1.2499618530273438,0.20477294921875
1.2499618530273438,1.2499618530273438,0.170135498046875
1.2499618530273438,1.2499618530273438,0.211334228515625
1.2499618530273438,1.2499618530273438,0.2344512939453125
1.2499618530273438,1.2499618530273438,0.2417755126953125
1.2499618530273438,1.2499618530273438,0.247650146484375
0.9508514404296875,0.9018325805664062,0.35369873046875
1.2499618530273438,1.2499618530273438,0.2957916259765625
1.2499618530273438,1.2499618530273438,0.3398895263671875
1.2499618530273438,1.2499618530273438,0.4746246337890625
1.2499618530273438,1.2499618530273438,0.311737060546875
1.2499618530273438,1.2499618530273438,0.1184844970703125
1.2499618530273438,1.2499618530273438,0.2140045166015625
1.2499618530273438,1.2499618530273438,0.1702880859375
1.2499618530273438,1.2499618530273438,-0.171966552734375
1.2499618530273438,1.2499618530273438,-0.13458251953125
1.2499618530273438,1.2499618530273438,-0.2254486083984375
1.2499618530273438,1.2499618530273438,-0.3015899658203125
1.2499618530273438,1.2499618530273438,-0.400543212890625
1.2499618530273438,1.2499618530273438,-0.4638671875
1.2499618530273438,1.2499618530273438,-0.451507568359375
0.92437744140625,0.9518051147460938,-0.44525146484375
1.2499618530273438,1.2499618530273438,-0.3038787841796875
1.2499618530273438,1.2499618530273438,-0.3406524658203125
1.2499618530273438,1.2499618530273438,-0.2724456787109375
1.2499618530273438,1.2499618530273438,-0.1773834228515625
1.2499618530273438,1.2499618530273438,-0.0804901123046875
1.2499618530273438,1.2499618530273438,0.0032806396484375
1.2499618530273438,1.2499618530273438,-0.00518798828125
1.2499618530273438,1.2499618530273438,0.247802734375
1.2499618530273438,1.2499618530273438,0.2645111083984375
1.2499618530273438,1.2499618530273438,0.223541259765625
1.2499618530273438,1.2499618530273438,0.228118896484375
1.2499618530273438,1.2499618530273438,0.2523040771484375
1.2499618530273438,1.2499618530273438,0.194854736328125
1.2499618530273438,1.2499618530273438,0.237274169921875
0.9510421752929688,0.9013748168945312,0.3835296630859375
1.2499618530273438,1.2499618530273438,0.3119659423828125
1.2499618530273438,1.2499618530273438,0.3338623046875
1.2499618530273438,1.2499618530273438,0.4840087890625
1.2499618530273438,1.2499618530273438,0.2179718017578125
1.2499618530273438,1.2499618530273438,0.133056640625
1.2499618530273438,1.2499618530273438,0.2082061767578125
1.2499618530273438,1.2499618530273438,0.13580322265625
1.2499618530273438,1.2499618530273438,-0.19134521484375
1.2499618530273438,1.2499618530273438,-0.209808349609375
1.2499618530273438,1.2499618530273438,-0.1206207275390625
1.2499618530273438,1.2499618530273438,-0.3631591796875
1.2499618530273438,1.2499618530273438,-0.4059600830078125
1.2499618530273438,1.2499618530273438,-0.3847503662109375
1.2499618530273438,1.2499618530273438,-0.4323577880859375
0.8882904052734375,0.9360504150390625,-0.4714202880859375
1.2499618530273438,1.2499618530273438,-0.2858734130859375
1.2499618530273438,1.2499618530273438,-0.2606201171875
1.2499618530273438,1.2499618530273438,-0.282440185546875
1.2499618530273438,1.2499618530273438,-0.1202392578125
1.2499618530273438,1.2499618530273438,-0.08758544921875
1.2499618530273438,1.2499618530273438,-0.0667572021484375
1.2499618530273438,1.2499618530273438,0.022430419921875
1.2499618530273438,1.2499618530273438,0.233917236328125
1.2499618530273438,1.2499618530273438,0.2136993408203125
1.2499618530273438,1.2499618530273438,0.1752471923828125
1.2499618530273438,1.2499618530273438,0.242462158203125
1.2499618530273438,1.2499618530273438,0.291595458984375
1.2499618530273438,1.2499618530273438,0.2790069580078125
1.2499618530273438,1.2499618530273438,0.194244384765625
0.9527206420898438,0.902557373046875,0.3015899658203125
1.2499618530273438,1.2499618530273438,0.2972412109375
1.2499618530273438,1.2499618530273438,0.3127288818359375
1.2499618530273438,1.2499618530273438,0.421600341796875
1.2499618530273438,1.2499618530273438,0.408477783203125
1.2499618530273438,1.2499618530273438,0.135650634765625
1.2499618530273438,1.2499618530273438,0.1514434814453125
1.2499618530273438,1.2499618530273438,0.1096343994140625
1.2499618530273438,1.2499618530273438,-0.143890380859375
1.2499618530273438,1.2499618530273438,-0.1470947265625
1.2499618530273438,1.2499618530273438,-0.18707275390625
1.2499618530273438,1.2499618530273438,-0.3033447265625
1.2499618530273438,1.2499618530273438,-0.4071807861328125
1.2499618530273438,1.2499618530273438,-0.4355621337890625
1.2499618530273438,1.2499618530273438,-0.4590606689453125
0.8996963500976562,0.9377288818359375,-0.45684814453125
1.2499618530273438,1.2499618530273438,-0.2506256103515625
1.2499618530273438,1.2499618530273438,-0.2925872802734375
1.2499618530273438,1.2499618530273438,-0.3436279296875
1.2499618530273438,1.2499618530273438,-0.12054443359375
1.2499618530273438,1.2499618530273438,-0.05889892578125
1.2499618530273438,1.2499618530273438,-0.078887939453125
1.2499618530273438,1.2499618530273438,-0.0299835205078125
1.2499618530273438,1.2499618530273438,0.21820068359375
1.2499618530273438,1.2499618530273438,0.1891326904296875
1.2499618530273438,1.2499618530273438,0.231781005859375
1.2499618530273438,1.2499618530273438,0.2773284912109375
1.2499618530273438,1.2499618530273438,0.2649688720703125
1.2499618530273438,1.2499618530273438,0.24017333984375
1.2499618530273438,1.2499618530273438,0.2423095703125
0.9624862670898438,0.910797119140625,0.33843994140625
1.2499618530273438,1.2499618530273438,0.324554443359375
1.2499618530273438,1.2499618530273438,0.343017578125
1.2499618530273438,1.2499618530273438,0.469207763671875
1.2499618530273438,1.2499618530273438,0.3005218505859375
1.2499618530273438,1.2499618530273438,0.180511474609375
1.2499618530273438,1.2499618530273438,0.1317596435546875
1.2499618530273438,1.2499618530273438,0.085601806640625
1.2499618530273438,1.2499618530273438,-0.2121734619140625
1.2499618530273438,1.2499618530273438,-0.15472412109375
1.2499618530273438,1.2499618530273438,-0.1666259765625
1.2499618530273438,1.2499618530273438,-0.2796173095703125
1.2499618530273438,1.2499618530273438,-0.4461669921875
1.2499618530273438,1.2499618530273438,-0.45074462890625
1.2499618530273438,1.2499618530273438,-0.464019775390625
0.8852767944335938,0.9268569946289062,-0.4541015625
1.2499618530273438,1.2499618530273438,-0.3397369384765625
1.2499618530273438,1.2499618530273438,-0.2716827392578125
1.2499618530273438,1.2499618530273438,-0.2689361572265625
1.2499618530273438,1.2499618530273438,-0.2130889892578125
1.2499618530273438,1.2499618530273438,0.015411376953125
1.2499618530273438,1.2499618530273438,-0.1311492919921875
1.2499618530273438,1.2499618530273438,-0.010986328125
1.2499618530273438,1.2499618530273438,0.2655792236328125
1.2499618530273438,1.2499618530273438,0.217742919921875
1.2499618530273438,1.2499618530273438,0.11962890625
1.2499618530273438,1.2499618530273438,0.2184295654296875
1.2499618530273438,1.2499618530273438,0.2185821533203125
1.2499618530273438,1.2499618530273438,0.240936279296875
1.2499618530273438,1.2499618530273438,0.2997589111328125
0.94268798828125,0.9085845947265625,0.3635406494140625
1.2499618530273438,1.2499618530273438,0.2835845947265625
1.2499618530273438,1.2499618530273438,0.3545379638671875
1.2499618530273438,1.2499618530273438,0.516204833984375
1.2499618530273438,1.2499618530273438,0.1961517333984375
1.2499618530273438,1.2499618530273438,0.20660400390625
1.2499618530273438,1.2499618530273438,0.1212310791015625
1.2499618530273438,1.2499618530273438,0.0807952880859375
1.2499618530273438,1.2499618530273438,-0.2123260498046875
1.2499618530273438,1.2499618530273438,-0.1662445068359375
1.2499618530273438,1.2499618530273438,-0.2040863037109375
1.2499618530273438,1.2499618530273438,-0.317230224609375
1.2499618530273438,1.2499618530273438,-0.390472412109375
1.2499618530273438,1.2499618530273438,-0.4846954345703125
1.2499618530273438,1.2499618530273438,-0.4572296142578125
0.9067535400390625,0.9604644775390625,-0.4776763916015625
1.2499618530273438,1.2499618530273438,-0.31005859375
1.2499618530273438,1.2499618530273438,-0.302276611328125
1.2499618530273438,1.2499618530273438,-0.293121337890625
1.2499618530273438,1.2499618530273438,-0.2533721923828125
1.2499618530273438,1.2499618530273438,0.0815582275390625
1.2499618530273438,1.2499618530273438,-0.099639892578125
1.2499618530273438,1.2499618530273438,0.001373291015625
1.2499618530273438,1.2499618530273438,0.1755523681640625
1.2499618530273438,1.2499618530273438,0.2639007568359375
1.2499618530273438,1.2499618530273438,0.19989013671875
1.2499618530273438,1.2499618530273438,0.244140625
1.2499618530273438,1.2499618530273438,0.2486419677734375
1.2499618530273438,1.2499618530273438,0.228729248046875
1.2499618530273438,1.2499618530273438,0.2801513671875
0.9290695190429688,0.8756637573242188,0.2593231201171875
1.2499618530273438,1.2499618530273438,0.265960693359375
1.2499618530273438,1.2499618530273438,0.3363037109375
1.2499618530273438,1.2499618530273438,0.4607391357421875
1.2499618530273438,1.2499618530273438,0.2695465087890625
1.2499618530273438,1.2499618530273438,0.3040313720703125
1.2499618530273438,1.2499618530273438,0.224609375
1.2499618530273438,1.2499618530273438,0.1157379150390625
1.2499618530273438,1.2499618530273438,-0.148162841796875
1.2499618530273438,1.2499618530273438,-0.1505279541015625
1.2499618530273438,1.2499618530273438,-0.1746368408203125
1.2499618530273438,1.2499618530273438,-0.318450927734375
1.2499618530273438,1.2499618530273438,-0.44036865234375
1.2499618530273438,1.2499618530273438,-0.4489898681640625
1.2499618530273438,1.2499618530273438,-0.4625701904296875
0.9136581420898438,0.9650421142578125,-0.476531982421875
1.2499618530273438,1.2499618530273438,-0.315399169921875
1.2499618530273438,1.2499618530273438,-0.320587158203125
1.2499618530273438,1.2499618530273438,-0.361480712890625
1.2499618530273438,1.2499618530273438,-0.1442718505859375
1.2499618530273438,1.2499618530273438,-0.008544921875
1.2499618530273438,1.2499618530273438,-0.00885009765625
1.2499618530273438,1.2499618530273438,-0.0429534912109375
1.2499618530273438,1.2499618530273438,0.29449462890625
1.2499618530273438,1.2499618530273438,0.1831817626953125
1.2499618530273438,1.2499618530273438,0.202789306640625
1.2499618530273438,1.2499618530273438,0.30609130859375
1.2499618530273438,1.2499618530273438,0.2945709228515625
1.2499618530273438,1.2499618530273438,0.26611328125
1.2499618530273438,1.2499618530273438,0.2236175537109375
0.8902740478515625,0.8548736572265625,0.3670501708984375
1.2499618530273438,1.2499618530273438,0.28717041015625
1.2499618530273438,1.2499618530273438,0.340423583984375
1.2499618530273438,1.2499618530273438,0.423583984375
1.2499618530273438,1.2499618530273438,0.4044342041015625
1.2499618530273438,1.2499618530273438,0.101318359375
1.2499618530273438,1.2499618530273438,0.161590576171875
1.2499618530273438,1.2499618530273438,0.016937255859375
1.2499618530273438,1.2499618530273438,-0.1334381103515625
1.2499618530273438,1.2499618530273438,-0.1757049560546875
1.2499618530273438,1.2499618530273438,-0.1454925537109375
1.2499618530273438,1.2499618530273438,-0.3911590576171875
1.2499618530273438,1.2499618530273438,-0.442657470703125
1.2499618530273438,1.2499618530273438,-0.3925323486328125
1.2499618530273438,1.2499618530273438,-0.4280853271484375
0.8916854858398438,0.941619873046875,-0.4842376708984375
1.2499618530273438,1.2499618530273438,-0.325775146484375
1.2499618530273438,1.2499618530273438,-0.2231597900390625
1.2499618530273438,1.2499618530273438,-0.2568817138671875
1.2499618530273438,1.2499618530273438,-0.102386474609375
1.2499618530273438,1.2499618530273438,-0.0689697265625
1.2499618530273438,1.2499618530273438,-0.0177001953125
1.2499618530273438,1.2499618530273438,-0.03753662109375
1.2499618530273438,1.2499618530273438,0.192108154296875
1.2499618530273438,1.2499618530273438,0.209197998046875
1.2499618530273438,1.2499618530273438,0.228271484375
1.2499618530273438,1.2499618530273438,0.299072265625
1.2499618530273438,1.2499618530273438,0.244903564453125
1.2499618530273438,1.2499618530273438,0.2121734619140625
1.2499618530273438,1.2499618530273438,0.2442169189453125
0.9098434448242188,0.8501815795898438,0.3155517578125
1.2499618530273438,1.2499618530273438,0.2984619140625
1.2499618530273438,1.2499618530273438,0.365753173828125
1.2499618530273438,1.2499618530273438,0.4315948486328125
1.2499618530273438,1.2499618530273438,0.282745361328125
1.2499618530273438,1.2499618530273438,0.14984130859375
1.2499618530273438,1.2499618530273438,0.15655517578125
1.2499618530273438,1.2499618530273438,0.0939178466796875
1.2499618530273438,1.2499618530273438,-0.0881195068359375
1.2499618530273438,1.2499618530273438,-0.163116455078125
1.2499618530273438,1.2499618530273438,-0.2266693115234375
1.2499618530273438,1.2499618530273438,-0.3417205810546875
1.2499618530273438,1.2499618530273438,-0.433502197265625
1.2499618530273438,1.2499618530273438,-0.4692840576171875
1.2499618530273438,1.2499618530273438,-0.4647064208984375
0.8984375,0.9641647338867188,-0.4729461669921875
1.2499618530273438,1.2499618530273438,-0.2801513671875
1.2499618530273438,1.2499618530273438,-0.298919677734375
1.2499618530273438,1.2499618530273438,-0.2681732177734375
1.2499618530273438,1.2499618530273438,-0.22247314453125
1.2499618530273438,1.2499618530273438,-0.1126861572265625
1.2499618530273438,1.2499618530273438,-0.04486083984375
1.2499618530273438,1.2499618530273438,-0.0287628173828125
1.2499618530273438,1.2499618530273438,0.2159881591796875
1.2499618530273438,1.2499618530273438,0.24169921875
1.2499618530273438,1.2499618530273438,0.179443359375
1.2499618530273438,1.2499618530273438,0.229339599609375
1.2499618530273438,1.2499618530273438,0.1662445068359375
1.2499618530273438,1.2499618530273438,0.225982666015625
1.2499618530273438,1.2499618530273438,0.26123046875
0.875244140625,0.8280563354492188,0.2834320068359375
1.2499618530273438,1.2499618530273438,0.2262115478515625
1.2499618530273438,1.2499618530273438,0.339202880859375
1.2499618530273438,1.2499618530273438,0.4399871826171875
1.2499618530273438,1.2499618530273438,0.2789306640625
1.2499618530273438,1.2499618530273438,0.153656005859375
1.2499618530273438,1.2499618530273438,0.207366943359375
1.2499618530273438,1.2499618530273438,0.186614990234375
1.2499618530273438,1.2499618530273438,-0.2124786376953125
1.2499618530273438,1.2499618530273438,-0.11871337890625
1.2499618530273438,1.2499618530273438,-0.15228271484375
1.2499618530273438,1.2499618530273438,-0.3452301025390625
1.2499618530273438,1.2499618530273438,-0.379791259765625
1.2499618530273438,1.2499618530273438,-0.4266357421875
1.2499618530273438,1.2499618530273438,-0.4734039306640625
0.8987045288085938,0.9741973876953125,-0.440673828125
1.2499618530273438,1.2499618530273438,-0.2948760986328125
1.2499618530273438,1.2499618530273438,-0.265655517578125
1.2499618530273438,1.2499618530273438,-0.2327728271484375
1.2499618530273438,1.2499618530273438,-0.069427490234375
1.2499618530273438,1.2499618530273438,0.137481689453125
1.2499618530273438,1.2499618530273438,0.004730224609375
1.2499618530273438,1.2499618530273438,0.0725555419921875
1.2499618530273438,1.2499618530273438,0.26641845703125
1.2499618530273438,1.2499618530273438,0.2565765380859375
1.2499618530273438,1.2499618530273438,0.189361572265625
1.2499618530273438,1.2499618530273438,0.3079986572265625
1.2499618530273438,1.2499618530273438,0.2785491943359375
1.2499618530273438,1.2499618530273438,0.2245330810546875
1.2499618530273438,1.2499618530273438,0.251922607421875
0.8935546875,0.8594131469726562,0.3202056884765625
1.2499618530273438,1.2499618530273438,0.2861785888671875
1.2499618530273438,1.2499618530273438,0.332183837890625
1.2499618530273438,1.2499618530273438,0.397186279296875
1.2499618530273438,1.2499618530273438,0.3290557861328125
1.2499618530273438,1.2499618530273438,0.1883697509765625
1.2499618530273438,1.2499618530273438,0.207366943359375
1.2499618530273438,1.2499618530273438,0.1625823974609375
1.2499618530273438,1.2499618530273438,-0.2309417724609375
1.2499618530273438,1.2499618530273438,-0.1041412353515625
1.2499618530273438,1.2499618530273438,-0.1580047607421875
1.2499618530273438,1.2499618530273438,-0.3458404541015625
1.2499618530273438,1.2499618530273438,-0.3763580322265625
1.2499618530273438,1.2499618530273438,-0.4224395751953125
1.2499618530273438,1.2499618530273438,-0.4454803466796875
0.90179443359375,0.975189208984375,-0.4862213134765625
1.2499618530273438,1.2499618530273438,-0.324859619140625
1.2499618530273438,1.2499618530273438,-0.2541351318359375
1.2499618530273438,1.2499618530273438,-0.26123046875
1.2499618530273438,1.2499618530273438,-0.064544677734375
1.2499618530273438,1.2499618530273438,0.0029754638671875
1.2499618530273438,1.2499618530273438,-0.0525665283203125
1.2499618530273438,1.2499618530273438,0.0414276123046875
1.2499618530273438,1.2499618530273438,0.224151611328125
1.2499618530273438,1.2499618530273438,0.1625823974609375
1.2499618530273438,1.2499618530273438,0.195159912109375
1.2499618530273438,1.2499618530273438,0.295867919921875
1.2499618530273438,1.2499618530273438,0.2419281005859375
1.2499618530273438,1.2499618530273438,0.285491943359375
1.2499618530273438,1.2499618530273438,0.2468109130859375
0.9494781494140625,0.8673477172851562,0.4036712646484375
1.2499618530273438,1.2499618530273438,0.2976226806640625
1.2499618530273438,1.2499618530273438,0.3075408935546875
1.2499618530273438,1.2499618530273438,0.4059600830078125
1.2499618530273438,1.2499618530273438,0.31768798828125
1.2499618530273438,1.2499618530273438,0.20050048828125
1.2499618530273438,1.2499618530273438,0.1971435546875
1.2499618530273438,1.2499618530273438,0.041351318359375
1.2499618530273438,1.2499618530273438,-0.162506103515625
1.2499618530273438,1.2499618530273438,-0.198516845703125
1.2499618530273438,1.2499618530273438,-0.1764678955078125
1.2499618530273438,1.2499618530273438,-0.3202056884765625
1.2499618530273438,1.2499618530273438,-0.4071807861328125
1.2499618530273438,1.2499618530273438,-0.4361724853515625
1.2499618530273438,1.2499618530273438,-0.447235107421875
0.9003829956054688,0.9615707397460938,-0.4308319091796875
1.2499618530273438,1.2499618530273438,-0.30029296875
1.2499618530273438,1.2499618530273438,-0.2523040771484375
1.2499618530273438,1.2499618530273438,-0.2674102783203125
1.2499618530273438,1.2499618530273438,-0.23223876953125
1.2499618530273438,1.2499618530273438,-0.0189208984375
1.2499618530273438,1.2499618530273438,-0.1061248779296875
1.2499618530273438,1.2499618530273438,-0.0199127197265625
1.2499618530273438,1.2499618530273438,0.2005767822265625
1.2499618530273438,1.2499618530273438,0.1763916015625
1.2499618530273438,1.2499618530273438,0.1602935791015625
1.2499618530273438,1.2499618530273438,0.2706146240234375
1.2499618530273438,1.2499618530273438,0.2396392822265625
1.2499618530273438,1.2499618530273438,0.2912139892578125
1.2499618530273438,1.2499618530273438,0.2979278564453125
0.924072265625,0.8827972412109375,0.3578948974609375
1.2499618530273438,1.2499618530273438,0.2874755859375
1.2499618530273438,1.2499618530273438,0.3527069091796875
1.2499618530273438,1.2499618530273438,0.3978729248046875
1.2499618530273438,1.2499618530273438,0.381927490234375
1.2499618530273438,1.2499618530273438,0.177154541015625
1.2499618530273438,1.2499618530273438,0.2306365966796875
1.2499618530273438,1.2499618530273438,0.0089263916015625
1.2499618530273438,1.2499618530273438,-0.0959014892578125
1.2499618530273438,1.2499618530273438,-0.09765625
1.2499618530273438,1.2499618530273438,-0.212860107421875
1.2499618530273438,1.2499618530273438,-0.37078857421875
1.2499618530273438,1.2499618530273438,-0.3313446044921875
1.2499618530273438,1.2499618530273438,-0.4248046875
1.2499618530273438,1.2499618530273438,-0.4561614990234375
0.9023284912109375,0.9564590454101562,-0.445098876953125
1.2499618530273438,1.2499618530273438,-0.2980804443359375
1.2499618530273438,1.2499618530273438,-0.25390625
1.2499618530273438,1.2499618530273438,-0.2616119384765625
1.2499618530273438,1.2499618530273438,-0.11383056640625
1.2499618530273438,1.2499618530273438,-0.036468505859375
1.2499618530273438,1.2499618530273438,-0.044708251953125
1.2499618530273438,1.2499618530273438,0.0127410888671875
1.2499618530273438,1.2499618530273438,0.2120208740234375
1.2499618530273438,1.2499618530273438,0.2162933349609375
1.2499618530273438,1.2499618530273438,0.20660400390625
1.2499618530273438,1.2499618530273438,0.326995849609375
1.2499618530273438,1.2499618530273438,0.2576446533203125
1.2499618530273438,1.2499618530273438,0.24810791015625
1.2499618530273438,1.2499618530273438,0.2739715576171875
0.9405136108398438,0.8634567260742188,0.3499603271484375
1.2499618530273438,1.2499618530273438,0.320587158203125
1.2499618530273438,1.2499618530273438,0.3021240234375
1.2499618530273438,1.2499618530273438,0.45013427734375
1.2499618530273438,1.2499618530273438,0.2634429931640625
1.2499618530273438,1.2499618530273438,0.182647705078125
1.2499618530273438,1.2499618530273438,0.1245880126953125
1.2499618530273438,1.2499618530273438,0.0930023193359375
1.2499618530273438,1.2499618530273438,-0.1486968994140625
1.2499618530273438,1.2499618530273438,-0.12725830078125
1.2499618530273438,1.2499618530273438,-0.153045654296875
1.2499618530273438,1.2499618530273438,-0.34759521484375
1.2499618530273438,1.2499618530273438,-0.37628173828125
1.2499618530273438,1.2499618530273438,-0.418701171875
1.2499618530273438,1.2499618530273438,-0.443878173828125
0.8678817749023438,0.9485244750976562,-0.491790771484375
1.2499618530273438,1.2499618530273438,-0.2923583984375
1.2499618530273438,1.2499618530273438,-0.2489471435546875
1.2499618530273438,1.2499618530273438,-0.21820068359375
1.2499618530273438,1.2499618530273438,-0.1581573486328125
1.2499618530273438,1.2499618530273438,-0.05523681640625
1.2499618530273438,1.2499618530273438,-0.038909912109375
1.2499618530273438,1.2499618530273438,0.03692626953125
1.2499618530273438,1.2499618530273438,0.271148681640625
1.2499618530273438,1.2499618530273438,0.1850128173828125
1.2499618530273438,1.2499618530273438,0.1556396484375
1.2499618530273438,1.2499618530273438,0.248870849609375
1.2499618530273438,1.2499618530273438,0.228271484375
1.2499618530273438,1.2499618530273438,0.218505859375
1.2499618530273438,1.2499618530273438,0.262298583984375
0.942840576171875,0.8946990966796875,0.3516387939453125
1.2499618530273438,1.2499618530273438,0.257720947265625
1.2499618530273438,1.2499618530273438,0.3659820556640625
1.2499618530273438,1.2499618530273438,0.4418182373046875
1.2499618530273438,1.2499618530273438,0.3575897216796875
1.2499618530273438,1.2499618530273438,0.113067626953125
1.2499618530273438,1.2499618530273438,0.25909423828125
1.2499618530273438,1.2499618530273438,0.0799560546875
1.2499618530273438,1.2499618530273438,-0.174102783203125
1.2499618530273438,1.2499618530273438,-0.0970458984375
1.2499618530273438,1.2499618530273438,-0.1857757568359375
1.2499618530273438,1.2499618530273438,-0.380706787109375
1.2499618530273438,1.2499618530273438,-0.2913665771484375
1.2499618530273438,1.2499618530273438,-0.4906463623046875
1.2499618530273438,1.2499618530273438,-0.488433837890625
0.8806610107421875,0.9297943115234375,-0.4325103759765625
1.2499618530273438,1.2499618530273438,-0.302276611328125
1.2499618530273438,1.2499618530273438,-0.2823638916015625
1.2499618530273438,1.2499618530273438,-0.2741241455078125
1.2499618530273438,1.2499618530273438,-0.14862060546875
1.2499618530273438,1.2499618530273438,0.040435791015625
1.2499618530273438,1.2499618530273438,0.0420379638671875
1.2499618530273438,1.2499618530273438,0.0072479248046875
1.2499618530273438,1.2499618530273438,0.2205657958984375
1.2499618530273438,1.2499618530273438,0.2077484130859375
1.2499618530273438,1.2499618530273438,0.128326416015625
1.2499618530273438,1.2499618530273438,0.2617645263671875
1.2499618530273438,1.2499618530273438,0.2619171142578125
1.2499618530273438,1.2499618530273438,0.3072357177734375
1.2499618530273438,1.2499618530273438,0.266876220703125
0.9841537475585938,0.9030532836914062,0.3277587890625
1.2499618530273438,1.2499618530273438,0.2303314208984375
1.2499618530273438,1.2499618530273438,0.3658294677734375
1.2499618530273438,1.2499618530273438,0.436859130859375
1.2499618530273438,1.2499618530273438,0.2716827392578125
1.2499618530273438,1.2499618530273438,0.1816558837890625
1.2499618530273438,1.2499618530273438,0.2386474609375
1.2499618530273438,1.2499618530273438,0.051727294921875
1.2499618530273438,1.2499618530273438,-0.1010894775390625
1.2499618530273438,1.2499618530273438,-0.1873779296875
1.2499618530273438,1.2499618530273438,-0.1690673828125
1.2499618530273438,1.2499618530273438,-0.415191650390625
1.2499618530273438,1.2499618530273438,-0.4276275634765625
1.2499618530273438,1.2499618530273438,-0.42572021484375
1.2499618530273438,1.2499618530273438,-0.45928955078125
0.9050750732421875,0.9630584716796875,-0.416259765625
1.2499618530273438,1.2499618530273438,-0.30181884765625
1.2499618530273438,1.2499618530273438,-0.2484130859375
1.2499618530273438,1.2499618530273438,-0.3342437744140625
1.2499618530273438,1.2499618530273438,-0.14892578125
1.2499618530273438,1.2499618530273438,-0.034637451171875
1.2499618530273438,1.2499618530273438,-0.1058197021484375
1.2499618530273438,1.2499618530273438,-0.0180816650390625
1.2499618530273438,1.2499618530273438,0.3285980224609375
1.2499618530273438,1.2499618530273438,0.21392822265625
1.2499618530273438,1.2499618530273438,0.230255126953125
1.2499618530273438,1.2499618530273438,0.303802490234375
1.2499618530273438,1.2499618530273438,0.2896881103515625
1.2499618530273438,1.2499618530273438,0.2060699462890625
1.2499618530273438,1.2499618530273438,0.2275848388671875
0.9373855590820312,0.906219482421875,0.3936767578125
1.2499618530273438,1.2499618530273438,0.257568359375
1.2499618530273438,1.2499618530273438,0.272979736328125
1.2499618530273438,1.2499618530273438,0.4107666015625
1.2499618530273438,1.2499618530273438,0.28656005859375
1.2499618530273438,1.2499618530273438,0.1238250732421875
1.2499618530273438,1.2499618530273438,0.1863861083984375
1.2499618530273438,1.2499618530273438,0.100860595703125
1.2499618530273438,1.2499618530273438,-0.134735107421875
1.2499618530273438,1.2499618530273438,-0.13458251953125
1.2499618530273438,1.2499618530273438,-0.2281951904296875
1.2499618530273438,1.2499618530273438,-0.41046142578125
1.2499618530273438,1.2499618530273438,-0.439300537109375
1.2499618530273438,1.2499618530273438,-0.438232421875
1.2499618530273438,1.2499618530273438,-0.48828125
0.9064102172851562,0.9866714477539062,-0.4508209228515625
1.2499618530273438,1.2499618530273438,-0.2857208251953125
1.2499618530273438,1.2499618530273438,-0.218505859375
1.2499618530273438,1.2499618530273438,-0.2552032470703125
1.2499618530273438,1.2499618530273438,-0.14739990234375
1.2499618530273438,1.2499618530273438,-0.0205230712890625
1.2499618530273438,1.2499618530273438,-0.0534820556640625
1.2499618530273438,1.2499618530273438,0.0131988525390625
1.2499618530273438,1.2499618530273438,0.2207183837890625
1.2499618530273438,1.2499618530273438,0.23040771484375
1.2499618530273438,1.2499618530273438,0.1610565185546875
1.2499618530273438,1.2499618530273438,0.2496337890625
1.2499618530273438,1.2499618530273438,0.2060699462890625
1.2499618530273438,1.2499618530273438,0.2478790283203125
1.2499618530273438,1.2499618530273438,0.31097412109375
0.9330368041992188,0.9079360961914062,0.3557586669921875
1.2499618530273438,1.2499618530273438,0.2188873291015625
1.2499618530273438,1.2499618530273438,0.3231048583984375
1.2499618530273438,1.2499618530273438,0.3952789306640625
1.2499618530273438,1.2499618530273438,0.2317047119140625
1.2499618530273438,1.2499618530273438,0.225830078125
1.2499618530273438,1.2499618530273438,0.139007568359375
1.2499618530273438,1.2499618530273438,0.116424560546875
1.2499618530273438,1.2499618530273438,-0.250701904296875
1.2499618530273438,1.2499618530273438,-0.17486572265625
1.2499618530273438,1.2499618530273438,-0.135955810546875
1.2499618530273438,1.2499618530273438,-0.430145263671875
1.2499618530273438,1.2499618530273438,-0.413970947265625
1.2499618530273438,1.2499618530273438,-0.479583740234375
1.2499618530273438,1.2499618530273438,-0.44219970703125
0.938720703125,0.9947586059570312,-0.401763916015625
1.2499618530273438,1.2499618530273438,-0.3005218505859375
1.2499618530273438,1.2499618530273438,-0.275421142578125
1.2499618530273438,1.2499618530273438,-0.2752685546875
1.2499618530273438,1.2499618530273438,-0.1482391357421875
1.2499618530273438,1.2499618530273438,0.00274658203125
1.2499618530273438,1.2499618530273438,-0.0135040283203125
1.2499618530273438,1.2499618530273438,0.01861572265625
1.2499618530273438,1.2499618530273438,0.302734375
1.2499618530273438,1.2499618530273438,0.1761627197265625
1.2499618530273438,1.2499618530273438,0.2114105224609375
1.2499618530273438,1.2499618530273438,0.311126708984375
1.2499618530273438,1.2499618530273438,0.2773284912109375
1.2499618530273438,1.2499618530273438,0.1885223388671875
1.2499618530273438,1.2499618530273438,0.2767181396484375
0.9300994873046875,0.8921432495117188,0.334930419921875
1.2499618530273438,1.2499618530273438,0.2533721923828125
1.2499618530273438,1.2499618530273438,0.3076171875
1.2499618530273438,1.2499618530273438,0.3783416748046875
1.2499618530273438,1.2499618530273438,0.341796875
1.2499618530273438,1.2499618530273438,0.2239990234375
1.2499618530273438,1.2499618530273438,0.1969146728515625
1.2499618530273438,1.2499618530273438,0.031585693359375
1.2499618530273438,1.2499618530273438,-0.2339935302734375
1.2499618530273438,1.2499618530273438,-0.1554107666015625
1.2499618530273438,1.2499618530273438,-0.193328857421875
1.2499618530273438,1.2499618530273438,-0.36285400390625
1.2499618530273438,1.2499618530273438,-0.356292724609375
1.2499618530273438,1.2499618530273438,-0.435333251953125
1.2499618530273438,1.2499618530273438,-0.49072265625
0.9369277954101562,1.0009765625,-0.446624755859375
1.2499618530273438,1.2499618530273438,-0.2931976318359375
1.2499618530273438,1.2499618530273438,-0.26580810546875
1.2499618530273438,1.2499618530273438,-0.3076934814453125
1.2499618530273438,1.2499618530273438,-0.1836395263671875
1.2499618530273438,1.2499618530273438,-0.0453948974609375
1.2499618530273438,1.2499618530273438,-0.07110595703125
1.2499618530273438,1.2499618530273438,0.0269317626953125
1.2499618530273438,1.2499618530273438,0.2098846435546875
1.2499618530273438,1.2499618530273438,0.224761962890625
1.2499618530273438,1.2499618530273438,0.1728057861328125
1.2499618530273438,1.2499618530273438,0.285797119140625
1.2499618530273438,1.2499618530273438,0.2386474609375
1.2499618530273438,1.2499618530273438,0.2155303955078125
1.2499618530273438,1.2499618530273438,0.276031494140625
0.9262466430664062,0.8648300170898438,0.3436279296875
1.2499618530273438,1.2499618530273438,0.28717041015625
1.2499618530273438,1.2499618530273438,0.333404541015625
1.2499618530273438,1.2499618530273438,0.4349517822265625
1.2499618530273438,1.2499618530273438,0.29632568359375
1.2499618530273438,1.2499618530273438,0.0843048095703125
1.2499618530273438,1.2499618530273438,0.1015472412109375
1.2499618530273438,1.2499618530273438,0.030059814453125
1.2499618530273438,1.2499618530273438,-0.08636474609375
1.2499618530273438,1.2499618530273438,-0.160369873046875
1.2499618530273438,1.2499618530273438,-0.155029296875
1.2499618530273438,1.2499618530273438,-0.3631591796875
1.2499618530273438,1.2499618530273438,-0.4396820068359375
1.2499618530273438,1.2499618530273438,-0.4634857177734375
1.2499618530273438,1.2499618530273438,-0.4415130615234375
0.9298324584960938,1.0321044921875,-0.4154205322265625
1.2499618530273438,1.2499618530273438,-0.3598785400390625
1.2499618530273438,1.2499618530273438,-0.2495574951171875
1.2499618530273438,1.2499618530273438,-0.3108978271484375
1.2499618530273438,1.2499618530273438,-0.18829345703125
1.2499618530273438,1.2499618530273438,-0.0469970703125
1.2499618530273438,1.2499618530273438,-0.07476806640625
1.2499618530273438,1.2499618530273438,0.0634765625
1.2499618530273438,1.2499618530273438,0.24444580078125
1.2499618530273438,1.2499618530273438,0.1834869384765625
1.2499618530273438,1.2499618530273438,0.097198486328125
1.2499618530273438,1.2499618530273438,0.2556610107421875
1.2499618530273438,1.2499618530273438,0.261383056640625
1.2499618530273438,1.2499618530273438,0.2225494384765625
1.2499618530273438,1.2499618530273438,0.2840423583984375
0.9428024291992188,0.8747482299804688,0.3380584716796875
1.2499618530273438,1.2499618530273438,0.2465057373046875
1.2499618530273438,1.2499618530273438,0.2893829345703125
1.2499618530273438,1.2499618530273438,0.3540802001953125
1.2499618530273438,1.2499618530273438,0.294189453125
1.2499618530273438,1.2499618530273438,0.29205322265625
1.2499618530273438,1.2499618530273438,0.278167724609375
1.2499618530273438,1.2499618530273438,0.0429534912109375
1.2499618530273438,1.2499618530273438,-0.1659393310546875
1.2499618530273438,1.2499618530273438,-0.1975250244140625
1.2499618530273438,1.2499618530273438,-0.150299072265625
1.2499618530273438,1.2499618530273438,-0.434417724609375
1.2499618530273438,1.2499618530273438,-0.3707122802734375
1.2499618530273438,1.2499618530273438,-0.408172607421875
1.2499618530273438,1.2499618530273438,-0.3922271728515625
0.9703445434570312,1.039276123046875,-0.412445068359375
1.2499618530273438,1.2499618530273438,-0.3243255615234375
1.2499618530273438,1.2499618530273438,-0.2486419677734375
1.2499618530273438,1.2499618530273438,-0.33538818359375
1.2499618530273438,1.2499618530273438,-0.025634765625
1.2499618530273438,1.2499618530273438,-0.020751953125
1.2499618530273438,1.2499618530273438,-0.0281524658203125
1.2499618530273438,1.2499618530273438,0.0696563720703125
1.2499618530273438,1.2499618530273438,0.1984405517578125
1.2499618530273438,1.2499618530273438,0.2022552490234375
1.2499618530273438,1.2499618530273438,0.163116455078125
1.2499618530273438,1.2499618530273438,0.2709197998046875
1.2499618530273438,1.2499618530273438,0.2398681640625
1.2499618530273438,1.2499618530273438,0.2002716064453125
1.2499618530273438,1.2499618530273438,0.247650146484375
0.9560775756835938,0.8919906616210938,0.316314697265625
1.2499618530273438,1.2499618530273438,0.29266357421875
1.2499618530273438,1.2499618530273438,0.332183837890625
1.2499618530273438,1.2499618530273438,0.38360595703125
1.2499618530273438,1.2499618530273438,0.286407470703125
1.2499618530273438,1.2499618530273438,0.0887298583984375
1.2499618530273438,1.2499618530273438,0.2276611328125
1.2499618530273438,1.2499618530273438,0.0311279296875
1.2499618530273438,1.2499618530273438,-0.103912353515625
1.2499618530273438,1.2499618530273438,-0.1467132568359375
1.2499618530273438,1.2499618530273438,-0.2205657958984375
1.2499618530273438,1.2499618530273438,-0.294952392578125
1.2499618530273438,1.2499618530273438,-0.3326416015625
1.2499618530273438,1.2499618530273438,-0.4433441162109375
1.2499618530273438,1.2499618530273438,-0.4743194580078125
0.9785079956054688,1.0457611083984375,-0.4874420166015625
1.2499618530273438,1.2499618530273438,-0.29571533203125
1.2499618530273438,1.2499618530273438,-0.260467529296875
1.2499618530273438,1.2499618530273438,-0.2805328369140625
1.2499618530273438,1.2499618530273438,-0.096588134765625
1.2499618530273438,1.2499618530273438,-0.078887939453125
1.2499618530273438,1.2499618530273438,-0.05340576171875
1.2499618530273438,1.2499618530273438,-0.0963592529296875
1.2499618530273438,1.2499618530273438,0.222930908203125
1.2499618530273438,1.2499618530273438,0.2239227294921875
1.2499618530273438,1.2499618530273438,0.189361572265625
1.2499618530273438,1.2499618530273438,0.1996612548828125
1.2499618530273438,1.2499618530273438,0.28228759765625
1.2499618530273438,1.2499618530273438,0.267791748046875
1.2499618530273438,1.2499618530273438,0.310211181640625
0.9719467163085938,0.9116744995117188,0.3462982177734375
1.2499618530273438,1.2499618530273438,0.3220367431640625
1.2499618530273438,1.2499618530273438,0.315399169921875
1.2499618530273438,1.2499618530273438,0.4297637939453125
1.2499618530273438,1.2499618530273438,0.248260498046875
1.2499618530273438,1.2499618530273438,0.1981353759765625
1.2499618530273438,1.2499618530273438,0.2462005615234375
1.2499618530273438,1.2499618530273438,0.1755523681640625
1.2499618530273438,1.2499618530273438,-0.0795745849609375
1.2499618530273438,1.2499618530273438,-0.18280029296875
1.2499618530273438,1.2499618530273438,-0.171051025390625
1.2499618530273438,1.2499618530273438,-0.3842926025390625
1.2499618530273438,1.2499618530273438,-0.4520416259765625
1.2499618530273438,1.2499618530273438,-0.418853759765625
1.2499618530273438,1.2499618530273438,-0.4718017578125
0.9886932373046875,1.0491561889648438,-0.46966552734375
1.2499618530273438,1.2499618530273438,-0.2823638916015625
1.2499618530273438,1.2499618530273438,-0.2219390869140625
1.2499618530273438,1.2499618530273438,-0.2349853515625
1.2499618530273438,1.2499618530273438,-0.08880615234375
1.2499618530273438,1.2499618530273438,-0.0399017333984375
1.2499618530273438,1.2499618530273438,-0.008392333984375
1.2499618530273438,1.2499618530273438,0.003814697265625
1.2499618530273438,1.2499618530273438,0.252685546875
1.2499618530273438,1.2499618530273438,0.2093505859375
1.2499618530273438,1.2499618530273438,0.195159912109375
1.2499618530273438,1.2499618530273438,0.2703094482421875
1.2499618530273438,1.2499618530273438,0.19866943359375
1.2499618530273438,1.2499618530273438,0.1921844482421875
1.2499618530273438,1.2499618530273438,0.2886962890625
0.9810256958007812,0.9256362915039062,0.3098297119140625
1.2499618530273438,1.2499618530273438,0.286407470703125
1.2499618530273438,1.2499618530273438,0.3610992431640625
1.2499618530273438,1.2499618530273438,0.4196929931640625
1.2499618530273438,1.2499618530273438,0.2835845947265625
1.2499618530273438,1.2499618530273438,0.13671875
1.2499618530273438,1.2499618530273438,0.1511383056640625
1.2499618530273438,1.2499618530273438,0.0296783447265625
1.2499618530273438,1.2499618530273438,-0.095672607421875
1.2499618530273438,1.2499618530273438,-0.0984954833984375
1.2499618530273438,1.2499618530273438,-0.133514404296875
1.2499618530273438,1.2499618530273438,-0.4278564453125
1.2499618530273438,1.2499618530273438,-0.43731689453125
1.2499618530273438,1.2499618530273438,-0.3820037841796875
1.2499618530273438,1.2499618530273438,-0.4535675048828125
0.9942245483398438,1.0248947143554688,-0.4428863525390625
1.2499618530273438,1.2499618530273438,-0.3597259521484375
1.2499618530273438,1.2499618530273438,-0.2944183349609375
1.2499618530273438,1.2499618530273438,-0.2569580078125
1.2499618530273438,1.2499618530273438,-0.0807952880859375
1.2499618530273438,1.2499618530273438,0.02899169921875
1.2499618530273438,1.2499618530273438,-0.0681304931640625
1.2499618530273438,1.2499618530273438,0.0738525390625
1.2499618530273438,1.2499618530273438,0.2204132080078125
1.2499618530273438,1.2499618530273438,0.2277374267578125
1.2499618530273438,1.2499618530273438,0.1575469970703125
1.2499618530273438,1.2499618530273438,0.30120849609375
1.2499618530273438,1.2499618530273438,0.2400970458984375
1.2499618530273438,1.2499618530273438,0.2136993408203125
1.2499618530273438,1.2499618530273438,0.2141571044921875
1.0241317749023438,0.9394454956054688,0.34271240234375
1.2499618530273438,1.2499618530273438,0.261993408203125
1.2499618530273438,1.2499618530273438,0.3438568115234375
1.2499618530273438,1.2499618530273438,0.4146575927734375
1.2499618530273438,1.2499618530273438,0.29937744140625
1.2499618530273438,1.2499618530273438,0.238189697265625
1.2499618530273438,1.2499618530273438,0.220489501953125
1.2499618530273438,1.2499618530273438,0.0061798095703125
1.2499618530273438,1.2499618530273438,-0.1513671875
1.2499618530273438,1.2499618530273438,-0.1363372802734375
1.2499618530273438,1.2499618530273438,-0.22247314453125
1.2499618530273438,1.2499618530273438,-0.39459228515625
1.2499618530273438,1.2499618530273438,-0.383148193359375
1.2499618530273438,1.2499618530273438,-0.3878021240234375
1.2499618530273438,1.2499618530273438,-0.4689788818359375
0.9397125244140625,1.0298919677734375,-0.449371337890625
1.2499618530273438,1.2499618530273438,-0.284271240234375
1.2499618530273438,1.2499618530273438,-0.29083251953125
1.2499618530273438,1.2499618530273438,-0.2228546142578125
1.2499618530273438,1.2499618530273438,-0.149993896484375
1.2499618530273438,1.2499618530273438,0.0492095947265625
1.2499618530273438,1.2499618530273438,-0.10955810546875
1.2499618530273438,1.2499618530273438,0.0325775146484375
1.2499618530273438,1.2499618530273438,0.341339111328125
1.2499618530273438,1.2499618530273438,0.2309417724609375
1.2499618530273438,1.2499618530273438,0.20233154296875
1.2499618530273438,1.2499618530273438,0.2671051025390625
1.2499618530273438,1.2499618530273438,0.259246826171875
1.2499618530273438,1.2499618530273438,0.2683258056640625
1.2499618530273438,1.2499618530273438,0.279998779296875
1.0243606567382812,0.95703125,0.2402496337890625
1.2499618530273438,1.2499618530273438,0.198822021484375
1.2499618530273438,1.2499618530273438,0.38055419921875
1.2499618530273438,1.2499618530273438,0.446319580078125
1.2499618530273438,1.2499618530273438,0.2632904052734375
1.2499618530273438,1.2499618530273438,0.1506805419921875
1.2499618530273438,1.2499618530273438,0.1432037353515625
1.2499618530273438,1.2499618530273438,-0.0116729736328125
1.2499618530273438,1.2499618530273438,-0.21148681640625
1.2499618530273438,1.2499618530273438,-0.14129638671875
1.2499618530273438,1.2499618530273438,-0.228271484375
1.2499618530273438,1.2499618530273438,-0.3696441650390625
1.2499618530273438,1.2499618530273438,-0.475311279296875
1.2499618530273438,1.2499618530273438,-0.4460906982421875
1.2499618530273438,1.2499618530273438,-0.479278564453125
0.9650039672851562,1.0185623168945312,-0.4601287841796875
1.2499618530273438,1.2499618530273438,-0.247650146484375
1.2499618530273438,1.2499618530273438,-0.2429962158203125
1.2499618530273438,1.2499618530273438,-0.2040863037109375
1.2499618530273438,1.2499618530273438,-0.0766754150390625
1.2499618530273438,1.2499618530273438,0.004425048828125
1.2499618530273438,1.2499618530273438,-0.089263916015625
1.2499618530273438,1.2499618530273438,0.0406646728515625
1.2499618530273438,1.2499618530273438,0.223541259765625
1.2499618530273438,1.2499618530273438,0.122528076171875
1.2499618530273438,1.2499618530273438,0.1427459716796875
1.2499618530273438,1.2499618530273438,0.23406982421875
1.2499618530273438,1.2499618530273438,0.2669525146484375
1.2499618530273438,1.2499618530273438,0.192718505859375
1.2499618530273438,1.2499618530273438,0.319366455078125
1.0300064086914062,0.96221923828125,0.3549957275390625
1.2499618530273438,1.2499618530273438,0.2545928955078125
1.2499618530273438,1.2499618530273438,0.3118133544921875
1.2499618530273438,1.2499618530273438,0.449371337890625
1.2499618530273438,1.2499618530273438,0.218963623046875
1.2499618530273438,1.2499618530273438,0.1930999755859375
1.2499618530273438,1.2499618530273438,0.214080810546875
1.2499618530273438,1.2499618530273438,0.0351715087890625
1.2499618530273438,1.2499618530273438,-0.1503753662109375
1.2499618530273438,1.2499618530273438,-0.116424560546875
1.2499618530273438,1.2499618530273438,-0.1633453369140625
1.2499618530273438,1.2499618530273438,-0.38726806640625
